Time_s,ADC
0.0,38
0.0,37
0.0,38
0.0,38
0.01,38
0.01,38
0.01,38
0.01,38
0.01,38
0.01,38
0.01,37
0.02,37
0.02,36
0.02,37
0.02,37
0.02,37
0.02,36
0.03,37
0.03,37
0.03,38
0.03,38
0.03,37
0.03,37
0.03,35
0.04,36
0.04,37
0.04,37
0.04,36
0.04,37
0.04,38
0.05,38
0.05,38
0.05,37
0.05,37
0.05,36
0.05,37
0.05,38
0.06,37
0.06,37
0.06,37
0.06,37
0.06,37
0.06,37
0.07,36
0.07,36
0.07,35
0.07,36
0.07,37
0.07,36
0.07,36
0.08,37
0.08,37
0.08,38
0.08,37
0.08,36
0.08,36
0.09,36
0.09,37
0.09,37
0.09,37
0.09,37
0.09,37
0.1,37
0.1,38
0.1,37
0.1,37
0.1,36
0.1,36
0.1,37
0.11,37
0.11,36
0.11,37
0.11,37
0.11,37
0.11,37
0.11,36
0.12,36
0.12,35
0.12,36
0.12,36
0.12,36
0.12,35
0.12,36
0.13,36
0.13,37
0.13,37
0.13,36
0.13,35
0.13,35
0.14,35
0.14,36
0.14,36
0.14,35
0.14,36
0.14,36
0.14,37
0.15,36
0.15,36
0.15,35
0.15,35
0.15,36
0.15,36
0.16,35
0.16,35
0.16,36
0.16,35
0.16,36
0.16,36
0.17,35
0.17,35
0.17,34
0.17,35
0.17,35
0.17,35
0.17,35
0.18,35
0.18,35
0.18,35
0.18,34
0.18,34
0.18,34
0.19,33
0.19,34
0.19,35
0.19,34
0.19,34
0.19,35
0.19,35
0.2,36
0.2,35
0.2,35
0.2,34
0.2,35
0.2,37
0.2,38
0.21,37
0.21,36
0.21,36
0.21,36
0.21,36
0.22,36
0.22,35
0.22,34
0.22,34
0.22,36
0.22,36
0.22,35
0.22,35
0.23,36
0.23,36
0.23,36
0.23,36
0.23,35
0.23,35
0.24,36
0.24,36
0.24,36
0.24,36
0.24,36
0.24,36
0.25,37
0.25,37
0.25,36
0.25,36
0.25,35
0.25,36
0.25,37
0.26,37
0.26,36
0.26,36
0.26,36
0.26,37
0.26,36
0.26,36
0.27,35
0.27,34
0.27,36
0.27,36
0.27,35
0.27,35
0.28,35
0.28,36
0.28,37
0.28,37
0.28,36
0.28,35
0.28,35
0.29,36
0.29,36
0.29,36
0.29,35
0.29,36
0.29,36
0.29,37
0.3,36
0.3,36
0.3,35
0.3,35
0.3,37
0.31,37
0.31,36
0.31,36
0.31,37
0.31,37
0.31,37
0.31,36
0.32,36
0.32,35
0.32,36
0.32,36
0.32,36
0.32,36
0.32,36
0.33,37
0.33,37
0.33,38
0.33,37
0.33,36
0.33,35
0.34,36
0.34,37
0.34,36
0.34,36
0.34,37
0.34,38
0.35,38
0.35,37
0.35,37
0.35,36
0.35,36
0.35,37
0.35,38
0.36,38
0.36,37
0.36,37
0.36,37
0.36,38
0.36,38
0.37,37
0.37,36
0.37,36
0.37,38
0.37,38
0.37,38
0.37,37
0.38,37
0.38,38
0.38,39
0.38,38
0.38,38
0.38,37
0.39,37
0.39,38
0.39,38
0.39,38
0.39,38
0.39,38
0.4,39
0.4,40
0.4,39
0.4,38
0.4,37
0.4,37
0.4,38
0.4,39
0.41,38
0.41,38
0.41,38
0.41,38
0.41,38
0.41,37
0.42,37
0.42,36
0.42,36
0.42,37
0.42,37
0.42,36
0.43,37
0.43,37
0.43,38
0.43,37
0.43,37
0.43,36
0.44,36
0.44,37
0.44,37
0.44,37
0.44,36
0.44,37
0.44,37
0.45,37
0.45,37
0.45,37
0.45,36
0.45,35
0.45,37
0.45,37
0.46,36
0.46,36
0.46,36
0.46,37
0.46,37
0.46,37
0.46,36
0.47,35
0.47,35
0.47,36
0.47,37
0.47,36
0.47,36
0.48,36
0.48,36
0.48,36
0.48,36
0.48,35
0.48,34
0.49,35
0.49,35
0.49,35
0.49,35
0.49,35
0.49,35
0.5,36
0.5,36
0.5,35
0.5,35
0.5,34
0.5,35
0.5,36
0.5,36
0.51,35
0.51,36
0.51,36
0.51,37
0.51,37
0.51,37
0.52,36
0.52,35
0.52,37
0.52,37
0.52,37
0.52,36
0.53,36
0.53,37
0.53,37
0.53,37
0.53,37
0.53,36
0.54,35
0.54,36
0.54,36
0.54,36
0.54,36
0.54,36
0.54,37
0.55,38
0.55,37
0.55,36
0.55,36
0.55,35
0.55,36
0.56,37
0.56,36
0.56,37
0.56,37
0.56,37
0.56,37
0.56,36
0.57,36
0.57,36
0.57,36
0.57,37
0.57,37
0.57,36
0.57,36
0.58,36
0.58,36
0.58,37
0.58,36
0.58,36
0.58,35
0.59,35
0.59,35
0.59,35
0.59,34
0.59,35
0.59,35
0.6,36
0.6,35
0.6,35
0.6,35
0.6,34
0.6,35
0.61,36
0.61,36
0.61,36
0.61,36
0.61,36
0.61,37
0.61,37
0.61,37
0.62,36
0.62,35
0.62,36
0.62,36
0.62,36
0.62,35
0.63,36
0.63,36
0.63,37
0.63,36
0.63,35
0.63,35
0.63,35
0.64,36
0.64,36
0.64,36
0.64,36
0.64,36
0.65,36
0.65,36
0.65,36
0.65,36
0.65,35
0.65,35
0.65,36
0.66,36
0.66,35
0.66,36
0.66,36
0.66,37
0.66,37
0.67,36
0.67,36
0.67,35
0.67,36
0.67,36
0.67,37
0.67,36
0.68,36
0.68,36
0.68,37
0.68,37
0.68,36
0.68,36
0.69,35
0.69,35
0.69,36
0.69,36
0.69,35
0.69,36
0.69,36
0.7,36
0.7,36
0.7,36
0.7,35
0.7,35
0.7,36
0.7,37
0.71,36
0.71,36
0.71,36
0.71,35
0.71,36
0.71,36
0.71,36
0.72,35
0.72,35
0.72,36
0.72,36
0.72,36
0.72,35
0.73,36
0.73,36
0.73,36
0.73,36
0.73,35
0.74,34
0.74,34
0.74,36
0.74,35
0.74,35
0.74,35
0.74,35
0.75,36
0.75,36
0.75,35
0.75,35
0.75,34
0.75,35
0.75,36
0.76,36
0.76,35
0.76,36
0.76,37
0.76,38
0.76,38
0.76,37
0.77,37
0.77,36
0.77,37
0.77,38
0.77,38
0.77,36
0.78,37
0.78,38
0.78,38
0.78,38
0.78,38
0.78,36
0.79,36
0.79,37
0.79,38
0.79,38
0.79,37
0.79,38
0.79,38
0.8,39
0.8,38
0.8,37
0.8,36
0.8,36
0.8,37
0.81,38
0.81,38
0.81,37
0.81,38
0.81,38
0.81,38
0.81,38
0.82,37
0.82,36
0.82,36
0.82,37
0.82,37
0.82,37
0.83,36
0.83,36
0.83,36
0.83,37
0.83,36
0.83,35
0.83,35
0.84,35
0.84,36
0.84,36
0.84,36
0.84,35
0.84,35
0.85,36
0.85,36
0.85,36
0.85,35
0.85,34
0.85,35
0.86,36
0.86,36
0.86,35
0.86,35
0.86,36
0.86,36
0.86,36
0.87,36
0.87,35
0.87,34
0.87,35
0.87,36
0.87,36
0.88,35
0.88,37
0.88,36
0.88,37
0.88,37
0.88,36
0.88,36
0.88,35
0.89,36
0.89,36
0.89,36
0.89,35
0.89,36
0.89,36
0.9,36
0.9,36
0.9,35
0.9,35
0.9,34
0.9,36
0.91,36
0.91,35
0.91,34
0.91,34
0.91,35
0.91,35
0.91,34
0.92,34
0.92,33
0.92,33
0.92,34
0.92,34
0.92,34
0.93,34
0.93,35
0.93,35
0.93,36
0.93,35
0.93,34
0.93,33
0.94,35
0.94,36
0.94,36
0.94,35
0.94,36
0.95,36
0.95,37
0.95,37
0.95,36
0.95,35
0.95,35
0.95,36
0.95,36
0.96,36
0.96,36
0.96,36
0.96,36
0.96,37
0.96,37
0.97,36
0.97,35
0.97,35
0.97,36
0.97,36
0.97,36
0.98,35
0.98,36
0.98,36
0.98,36
0.98,35
0.98,36
0.98,35
0.99,34
0.99,34
0.99,34
0.99,33
0.99,34
0.99,34
1.0,34
1.0,35
1.0,34
1.0,34
1.0,33
1.0,33
1.0,35
1.01,35
1.01,34
1.01,34
1.01,35
1.01,35
1.01,36
1.01,35
1.02,35
1.02,34
1.02,34
1.02,35
1.02,35
1.02,35
1.03,35
1.03,35
1.03,36
1.03,35
1.03,35
1.03,34
1.03,34
1.04,35
1.04,35
1.04,36
1.04,35
1.04,36
1.04,35
1.05,36
1.05,36
1.05,35
1.05,34
1.05,34
1.05,35
1.05,35
1.06,35
1.06,35
1.06,35
1.06,35
1.06,36
1.06,36
1.07,35
1.07,34
1.07,34
1.07,35
1.07,35
1.07,35
1.08,34
1.08,35
1.08,35
1.08,36
1.08,35
1.08,34
1.08,34
1.09,33
1.09,34
1.09,35
1.09,34
1.09,35
1.09,35
1.1,35
1.1,36
1.1,35
1.1,35
1.1,34
1.1,35
1.1,36
1.11,37
1.11,36
1.11,36
1.11,36
1.11,36
1.11,36
1.12,35
1.12,35
1.12,34
1.12,35
1.12,35
1.12,35
1.12,34
1.13,35
1.13,36
1.13,37
1.13,36
1.13,36
1.13,35
1.13,34
1.14,36
1.14,36
1.14,36
1.14,35
1.14,36
1.14,36
1.15,37
1.15,36
1.15,36
1.15,35
1.15,35
1.15,37
1.16,38
1.16,37
1.16,38
1.16,39
1.16,40
1.16,41
1.16,40
1.17,40
1.17,39
1.17,39
1.17,40
1.17,40
1.17,40
1.18,39
1.18,40
1.18,40
1.18,40
1.18,39
1.18,39
1.18,39
1.19,42
1.19,43
1.19,43
1.19,43
1.19,44
1.2,46
1.2,48
1.2,50
1.2,49
1.2,48
1.2,47
1.2,51
1.21,56
1.21,60
1.21,61
1.21,59
1.21,58
1.21,62
1.21,63
1.22,63
1.22,64
1.22,74
1.22,83
1.22,88
1.22,86
1.23,87
1.23,92
1.23,98
1.23,104
1.23,104
1.23,102
1.23,101
1.24,101
1.24,98
1.24,95
1.24,92
1.24,90
1.24,88
1.25,88
1.25,86
1.25,84
1.25,82
1.25,80
1.25,80
1.25,79
1.26,79
1.26,77
1.26,75
1.26,73
1.26,71
1.26,69
1.27,68
1.27,68
1.27,67
1.27,69
1.27,71
1.27,72
1.27,71
1.28,69
1.28,70
1.28,69
1.28,71
1.28,76
1.28,80
1.29,82
1.29,81
1.29,81
1.29,85
1.29,93
1.29,95
1.29,92
1.3,92
1.3,99
1.3,104
1.3,102
1.3,98
1.3,97
1.31,99
1.31,103
1.31,108
1.31,111
1.31,112
1.31,112
1.32,112
1.32,112
1.32,112
1.32,116
1.32,113
1.32,112
1.33,114
1.33,115
1.33,115
1.33,114
1.33,115
1.33,118
1.34,119
1.34,122
1.34,128
1.34,135
1.34,136
1.34,132
1.35,134
1.35,135
1.35,136
1.35,138
1.35,135
1.35,134
1.35,133
1.36,131
1.36,133
1.36,139
1.36,140
1.36,137
1.36,134
1.37,137
1.37,146
1.37,161
1.37,164
1.37,159
1.37,158
1.37,159
1.38,160
1.38,157
1.38,152
1.38,149
1.38,146
1.38,146
1.39,143
1.39,141
1.39,140
1.39,140
1.39,137
1.39,135
1.4,135
1.4,134
1.4,130
1.4,134
1.4,139
1.4,138
1.4,134
1.41,130
1.41,126
1.41,123
1.41,127
1.41,131
1.41,132
1.42,134
1.42,131
1.42,132
1.42,140
1.42,149
1.42,158
1.43,165
1.43,162
1.43,163
1.43,167
1.43,172
1.43,172
1.44,174
1.44,181
1.44,188
1.44,190
1.44,186
1.44,180
1.45,182
1.45,188
1.45,184
1.45,181
1.45,178
1.45,175
1.46,173
1.46,172
1.46,171
1.46,180
1.46,190
1.46,197
1.47,195
1.47,189
1.47,184
1.47,178
1.47,174
1.47,175
1.47,175
1.48,172
1.48,167
1.48,162
1.48,164
1.48,165
1.48,166
1.49,167
1.49,164
1.49,160
1.49,163
1.49,173
1.49,183
1.5,189
1.5,194
1.5,194
1.5,188
1.5,190
1.5,193
1.5,195
1.51,199
1.51,207
1.51,211
1.51,206
1.51,204
1.51,202
1.52,201
1.52,198
1.52,202
1.52,206
1.52,201
1.52,196
1.52,192
1.53,189
1.53,183
1.53,177
1.53,174
1.53,174
1.53,170
1.54,168
1.54,162
1.54,157
1.54,152
1.54,151
1.54,148
1.55,143
1.55,139
1.55,137
1.55,134
1.55,132
1.55,129
1.56,130
1.56,134
1.56,141
1.56,153
1.56,160
1.56,160
1.57,156
1.57,151
1.57,150
1.57,152
1.57,156
1.57,161
1.57,161
1.58,156
1.58,152
1.58,155
1.58,164
1.58,168
1.59,163
1.59,158
1.59,155
1.59,160
1.59,162
1.59,160
1.59,161
1.6,164
1.6,161
1.6,163
1.6,162
1.6,162
1.6,162
1.61,157
1.61,158
1.61,160
1.61,161
1.61,162
1.61,161
1.61,157
1.62,158
1.62,161
1.62,165
1.62,162
1.62,162
1.63,165
1.63,169
1.63,171
1.63,174
1.63,175
1.63,173
1.63,176
1.64,180
1.64,189
1.64,201
1.64,205
1.64,203
1.64,207
1.65,204
1.65,207
1.65,215
1.65,224
1.65,229
1.65,224
1.65,233
1.66,260
1.66,284
1.66,292
1.66,287
1.66,277
1.66,271
1.67,281
1.67,288
1.67,288
1.67,292
1.67,293
1.67,286
1.68,285
1.68,290
1.68,305
1.68,314
1.68,308
1.68,305
1.68,304
1.69,308
1.69,313
1.69,320
1.69,323
1.69,325
1.7,324
1.7,318
1.7,326
1.7,338
1.7,356
1.7,367
1.7,361
1.71,355
1.71,354
1.71,367
1.71,382
1.71,380
1.71,368
1.72,367
1.72,373
1.72,379
1.72,371
1.72,358
1.72,350
1.73,340
1.73,334
1.73,332
1.73,328
1.73,326
1.73,324
1.74,316
1.74,312
1.74,312
1.74,316
1.74,314
1.74,304
1.74,299
1.75,292
1.75,287
1.75,289
1.75,292
1.75,287
1.75,283
1.76,289
1.76,304
1.76,321
1.76,324
1.76,315
1.76,314
1.76,335
1.77,343
1.77,335
1.77,329
1.77,318
1.77,312
1.77,314
1.78,309
1.78,305
1.78,300
1.78,294
1.78,294
1.78,290
1.79,285
1.79,284
1.79,277
1.79,277
1.79,280
1.79,284
1.8,287
1.8,287
1.8,284
1.8,276
1.8,272
1.8,280
1.8,294
1.81,306
1.81,322
1.81,324
1.81,317
1.81,319
1.82,343
1.82,374
1.82,397
1.82,399
1.82,388
1.82,387
1.82,388
1.83,389
1.83,402
1.83,427
1.83,448
1.83,459
1.84,450
1.84,457
1.84,477
1.84,491
1.84,491
1.84,482
1.84,472
1.85,456
1.85,443
1.85,437
1.85,434
1.85,426
1.85,426
1.86,414
1.86,407
1.86,405
1.86,399
1.86,386
1.86,377
1.86,367
1.87,362
1.87,366
1.87,361
1.87,359
1.87,370
1.87,383
1.88,382
1.88,375
1.88,383
1.88,393
1.88,385
1.88,376
1.89,364
1.89,352
1.89,343
1.89,336
1.89,332
1.89,330
1.9,322
1.9,313
1.9,316
1.9,342
1.9,357
1.9,349
1.9,348
1.91,363
1.91,379
1.91,382
1.91,381
1.91,372
1.91,361
1.91,348
1.92,339
1.92,329
1.92,328
1.92,337
1.92,351
1.93,372
1.93,396
1.93,397
1.93,387
1.93,380
1.93,377
1.93,375
1.94,381
1.94,406
1.94,424
1.94,428
1.94,421
1.94,407
1.95,396
1.95,387
1.95,386
1.95,379
1.95,366
1.95,355
1.96,353
1.96,360
1.96,354
1.96,344
1.96,337
1.96,337
1.97,332
1.97,325
1.97,319
1.97,324
1.97,329
1.97,326
1.98,331
1.98,339
1.98,348
1.98,352
1.98,349
1.98,338
1.98,327
1.99,320
1.99,320
1.99,319
1.99,321
1.99,330
1.99,338
2.0,331
2.0,338
2.0,354
2.0,376
2.0,371
2.0,369
2.01,369
2.01,368
2.01,372
2.01,405
2.01,451
2.01,470
2.02,467
2.02,507
2.02,548
2.02,557
2.02,556
2.02,556
2.02,549
2.03,533
2.03,529
2.03,530
2.03,533
2.03,549
2.03,562
2.04,564
2.04,551
2.04,565
2.04,586
2.04,595
2.04,578
2.05,567
2.05,555
2.05,539
2.05,531
2.05,515
2.05,499
2.06,487
2.06,471
2.06,459
2.06,446
2.06,444
2.06,466
2.06,497
2.07,514
2.07,520
2.07,568
2.07,597
2.07,597
2.07,583
2.08,573
2.08,567
2.08,554
2.08,537
2.08,537
2.08,552
2.09,567
2.09,575
2.09,570
2.09,570
2.09,561
2.09,556
2.1,562
2.1,573
2.1,587
2.1,589
2.1,592
2.1,579
2.1,567
2.11,570
2.11,579
2.11,584
2.11,569
2.11,570
2.11,573
2.12,572
2.12,589
2.12,589
2.12,570
2.12,553
2.12,547
2.13,552
2.13,570
2.13,577
2.13,562
2.13,549
2.13,551
2.14,557
2.14,572
2.14,583
2.14,567
2.14,563
2.14,575
2.14,565
2.15,549
2.15,533
2.15,549
2.15,567
2.15,572
2.15,560
2.16,557
2.16,554
2.16,552
2.16,549
2.16,552
2.16,556
2.17,548
2.17,533
2.17,534
2.17,540
2.17,526
2.17,546
2.17,590
2.18,588
2.18,575
2.18,565
2.18,572
2.18,580
2.19,575
2.19,559
2.19,559
2.19,573
2.19,591
2.19,592
2.19,575
2.2,565
2.2,561
2.2,559
2.2,547
2.2,555
2.2,579
2.21,602
2.21,610
2.21,595
2.21,579
2.21,560
2.21,547
2.21,543
2.22,538
2.22,551
2.22,578
2.22,618
2.22,641
2.23,647
2.23,704
2.23,740
2.23,741
2.23,737
2.23,749
2.23,737
2.24,763
2.24,776
2.24,764
2.24,749
2.24,733
2.24,716
2.25,694
2.25,680
2.25,672
2.25,682
2.25,668
2.25,684
2.25,688
2.26,678
2.26,674
2.26,657
2.26,647
2.26,653
2.27,647
2.27,650
2.27,671
2.27,658
2.27,648
2.27,653
2.27,644
2.28,625
2.28,621
2.28,611
2.28,623
2.28,646
2.28,651
2.29,636
2.29,624
2.29,624
2.29,633
2.29,622
2.29,624
2.29,630
2.3,610
2.3,590
2.3,570
2.3,565
2.3,563
2.31,545
2.31,534
2.31,529
2.31,521
2.31,514
2.31,513
2.31,532
2.32,534
2.32,561
2.32,613
2.32,650
2.32,671
2.32,711
2.33,709
2.33,745
2.33,797
2.33,797
2.33,782
2.33,779
2.34,765
2.34,758
2.34,753
2.34,732
2.34,729
2.34,728
2.34,719
2.35,774
2.35,815
2.35,823
2.35,868
2.35,860
2.35,833
2.36,805
2.36,786
2.36,762
2.36,751
2.36,747
2.36,725
2.37,702
2.37,679
2.37,661
2.37,654
2.37,639
2.37,629
2.38,609
2.38,600
2.38,595
2.38,576
2.38,584
2.38,606
2.38,599
2.39,616
2.39,629
2.39,660
2.39,651
2.39,711
2.39,739
2.4,726
2.4,723
2.4,724
2.4,713
2.4,693
2.4,690
2.41,701
2.41,686
2.41,670
2.41,649
2.41,632
2.41,627
2.42,637
2.42,635
2.42,618
2.42,609
2.42,613
2.42,621
2.42,672
2.43,671
2.43,657
2.43,637
2.43,618
2.43,609
2.44,595
2.44,578
2.44,568
2.44,566
2.44,565
2.44,552
2.44,540
2.45,523
2.45,514
2.45,510
2.45,527
2.45,522
2.45,520
2.46,515
2.46,514
2.46,541
2.46,533
2.46,530
2.46,541
2.46,549
2.47,560
2.47,568
2.47,559
2.47,552
2.47,540
2.48,540
2.48,557
2.48,561
2.48,551
2.48,534
2.48,525
2.48,509
2.49,493
2.49,483
2.49,472
2.49,478
2.49,493
2.49,487
2.5,480
2.5,476
2.5,464
2.5,449
2.5,474
2.5,557
2.5,592
2.51,640
2.51,736
2.51,761
2.51,737
2.51,712
2.51,691
2.52,678
2.52,669
2.52,668
2.52,657
2.52,638
2.52,649
2.53,651
2.53,653
2.53,670
2.53,660
2.53,645
2.53,625
2.54,606
2.54,596
2.54,598
2.54,590
2.54,574
2.54,569
2.54,555
2.55,536
2.55,517
2.55,504
2.55,494
2.55,500
2.55,497
2.56,515
2.56,526
2.56,537
2.56,526
2.56,534
2.56,542
2.57,529
2.57,528
2.57,518
2.57,516
2.57,515
2.57,505
2.58,498
2.58,508
2.58,535
2.58,547
2.58,544
2.58,559
2.58,582
2.59,573
2.59,579
2.59,569
2.59,566
2.59,579
2.59,574
2.6,562
2.6,551
2.6,562
2.6,554
2.6,537
2.6,523
2.61,517
2.61,513
2.61,499
2.61,485
2.61,481
2.61,472
2.62,463
2.62,448
2.62,439
2.62,450
2.62,469
2.62,464
2.62,455
2.63,446
2.63,450
2.63,446
2.63,432
2.63,417
2.63,406
2.64,400
2.64,393
2.64,384
2.64,384
2.64,381
2.64,382
2.65,375
2.65,364
2.65,355
2.65,346
2.65,340
2.65,334
2.66,330
2.66,331
2.66,323
2.66,317
2.66,320
2.66,334
2.67,328
2.67,340
2.67,336
2.67,332
2.67,335
2.67,325
2.67,319
2.68,323
2.68,327
2.68,332
2.68,345
2.68,379
2.68,394
2.69,414
2.69,478
2.69,511
2.69,498
2.69,484
2.69,470
2.7,457
2.7,448
2.7,446
2.7,444
2.7,450
2.7,455
2.71,460
2.71,453
2.71,455
2.71,469
2.71,479
2.71,483
2.71,472
2.72,482
2.72,483
2.72,474
2.72,476
2.72,471
2.72,471
2.73,465
2.73,456
2.73,453
2.73,452
2.73,490
2.73,495
2.74,515
2.74,524
2.74,533
2.74,523
2.74,510
2.74,511
2.75,505
2.75,532
2.75,535
2.75,526
2.75,513
2.75,499
2.75,486
2.76,473
2.76,462
2.76,464
2.76,453
2.76,439
2.76,424
2.77,412
2.77,411
2.77,412
2.77,405
2.77,396
2.77,393
2.78,411
2.78,442
2.78,455
2.78,453
2.78,469
2.78,487
2.79,496
2.79,484
2.79,478
2.79,465
2.79,452
2.79,449
2.79,443
2.8,429
2.8,418
2.8,407
2.8,402
2.8,403
2.8,396
2.81,391
2.81,391
2.81,384
2.81,381
2.81,372
2.81,367
2.81,357
2.82,357
2.82,349
2.82,340
2.82,330
2.82,327
2.83,320
2.83,310
2.83,300
2.83,289
2.83,280
2.83,271
2.83,262
2.84,253
2.84,251
2.84,271
2.84,284
2.84,288
2.84,308
2.85,308
2.85,306
2.85,299
2.85,292
2.85,283
2.85,275
2.85,267
2.86,260
2.86,253
2.86,246
2.86,238
2.86,230
2.87,224
2.87,217
2.87,210
2.87,203
2.87,197
2.87,191
2.87,192
2.88,190
2.88,185
2.88,182
2.88,176
2.88,170
2.88,165
2.89,159
2.89,155
2.89,150
2.89,147
2.89,143
2.89,139
2.9,136
2.9,133
2.9,130
2.9,126
2.9,122
2.9,118
2.91,115
2.91,112
2.91,109
2.91,105
2.91,103
2.91,111
2.91,124
2.92,135
2.92,138
2.92,158
2.92,170
2.92,170
2.92,167
2.93,163
2.93,159
2.93,156
2.93,154
2.93,151
2.93,146
2.94,151
2.94,170
2.94,182
2.94,180
2.94,182
2.94,183
2.95,184
2.95,182
2.95,187
2.95,198
2.95,200
2.95,208
2.95,216
2.96,216
2.96,210
2.96,209
2.96,210
2.96,204
2.96,198
2.97,192
2.97,188
2.97,183
2.97,178
2.97,175
2.97,172
2.98,167
2.98,162
2.98,158
2.98,153
2.98,149
2.98,144
2.98,142
2.99,142
2.99,147
2.99,150
2.99,148
2.99,150
2.99,159
3.0,161
3.0,158
3.0,154
3.0,153
3.0,152
3.0,149
3.01,146
3.01,143
3.01,149
3.01,166
3.01,172
3.01,175
3.02,201
3.02,208
3.02,204
3.02,200
3.02,193
3.02,187
3.02,182
3.03,182
3.03,181
3.03,178
3.03,174
3.03,188
3.03,198
3.04,196
3.04,209
3.04,221
3.04,224
3.04,220
3.04,215
3.05,208
3.05,202
3.05,195
3.05,189
3.05,184
3.05,179
3.06,176
3.06,173
3.06,169
3.06,164
3.06,159
3.06,154
3.06,149
3.07,145
3.07,140
3.07,136
3.07,137
3.07,142
3.07,142
3.08,141
3.08,145
3.08,146
3.08,143
3.08,139
3.08,136
3.09,134
3.09,132
3.09,132
3.09,132
3.09,131
3.09,128
3.09,133
3.1,148
3.1,149
3.1,155
3.1,164
3.1,180
3.1,183
3.11,179
3.11,177
3.11,175
3.11,174
3.11,176
3.11,178
3.12,181
3.12,179
3.12,184
3.12,182
3.12,179
3.12,189
3.13,202
3.13,209
3.13,212
3.13,209
3.13,204
3.13,198
3.14,193
3.14,187
3.14,184
3.14,181
3.14,177
3.14,173
3.14,167
3.15,162
3.15,156
3.15,152
3.15,148
3.15,144
3.15,139
3.16,137
3.16,134
3.16,131
3.16,127
3.16,125
3.16,124
3.17,121
3.17,118
3.17,115
3.17,111
3.17,112
3.17,119
3.18,124
3.18,123
3.18,127
3.18,133
3.18,134
3.18,131
3.18,128
3.19,124
3.19,121
3.19,120
3.19,117
3.19,115
3.19,115
3.2,116
3.2,123
3.2,140
3.2,147
3.2,145
3.2,154
3.21,174
3.21,187
3.21,190
3.21,190
3.21,186
3.21,179
3.22,173
3.22,170
3.22,167
3.22,163
3.22,163
3.22,162
3.22,159
3.23,155
3.23,154
3.23,151
3.23,148
3.23,144
3.23,144
3.24,144
3.24,141
3.24,139
3.24,135
3.24,133
3.24,133
3.25,130
3.25,126
3.25,122
3.25,120
3.25,117
3.25,114
3.26,112
3.26,111
3.26,108
3.26,105
3.26,103
3.26,100
3.26,97
3.27,96
3.27,95
3.27,94
3.27,95
3.27,94
3.27,92
3.28,89
3.28,87
3.28,86
3.28,85
3.28,83
3.28,84
3.28,87
3.29,88
3.29,89
3.29,89
3.29,88
3.29,91
3.29,94
3.3,94
3.3,93
3.3,91
3.3,88
3.3,86
3.3,84
3.31,84
3.31,83
3.31,82
3.31,79
3.31,79
3.31,78
3.31,77
3.32,76
3.32,75
3.32,73
3.32,71
3.32,71
3.32,70
3.32,69
3.33,67
3.33,67
3.33,66
3.33,66
3.33,65
3.33,64
3.34,62
3.34,61
3.34,60
3.34,59
3.34,58
3.34,57
3.35,57
3.35,56
3.35,56
3.35,54
3.35,54
3.35,52
3.35,52
3.36,52
3.36,52
3.36,51
3.36,50
3.36,50
3.36,50
3.37,49
3.37,48
3.37,47
3.37,46
3.37,45
3.37,46
3.38,47
3.38,46
3.38,45
3.38,45
3.38,46
3.38,46
3.38,45
3.39,44
3.39,43
3.39,45
3.39,45
3.39,46
3.39,45
3.39,45
3.4,44
3.4,43
3.4,42
3.4,42
3.4,41
3.4,40
3.41,40
3.41,40
3.41,39
3.41,39
3.41,38
3.41,39
3.42,39
3.42,39
3.42,38
3.42,38
3.42,37
3.42,38
3.42,38
3.43,37
3.43,37
3.43,38
3.43,39
3.43,39
3.43,39
3.44,38
3.44,37
3.44,37
3.44,38
3.44,37
3.44,36
3.44,37
3.45,38
3.45,38
3.45,39
3.45,38
3.45,38
3.45,37
3.45,36
3.46,37
3.46,38
3.46,37
3.46,37
3.46,37
3.46,38
3.47,38
3.47,37
3.47,37
3.47,36
3.47,37
3.47,38
3.48,37
3.48,37
3.48,37
3.48,37
3.48,39
3.48,39
3.48,38
3.49,37
3.49,37
3.49,38
3.49,39
3.49,39
3.49,38
3.5,39
3.5,39
3.5,40
3.5,39
3.5,39
3.5,38
3.51,38
3.51,39
3.51,40
3.51,39
3.51,39
3.51,40
3.51,41
3.52,42
3.52,41
3.52,41
3.52,40
3.52,39
3.52,39
3.52,39
3.53,39
3.53,39
3.53,39
3.53,40
3.53,40
3.53,39
3.54,38
3.54,37
3.54,38
3.54,38
3.54,38
3.54,38
3.55,37
3.55,37
3.55,38
3.55,38
3.55,37
3.55,36
3.55,35
3.56,36
3.56,37
3.56,36
3.56,36
3.56,36
3.56,36
3.57,36
3.57,36
3.57,35
3.57,34
3.57,34
3.57,35
3.57,36
3.58,35
3.58,35
3.58,36
3.58,36
3.58,37
3.58,36
3.59,36
3.59,35
3.59,35
3.59,36
3.59,37
3.59,36
3.59,36
3.6,37
3.6,37
3.6,37
3.6,37
3.6,36
3.6,35
3.61,36
3.61,37
3.61,37
3.61,36
3.61,36
3.61,36
3.61,36
3.62,36
3.62,35
3.62,35
3.62,34
3.62,36
3.62,36
3.63,35
3.63,35
3.63,36
3.63,36
3.63,37
3.63,37
3.64,37
3.64,36
3.64,36
3.64,37
3.64,37
3.64,37
3.64,36
3.65,37
3.65,37
3.65,37
3.65,37
3.65,36
3.65,36
3.65,36
3.66,37
3.66,37
3.66,37
3.66,37
3.66,37
3.66,37
3.67,37
3.67,37
3.67,36
3.67,35
3.67,35
3.67,36
3.68,36
3.68,35
3.68,36
3.68,36
3.68,37
3.68,37
3.68,37
3.69,36
3.69,35
3.69,37
3.69,37
3.69,37
3.69,36
3.7,36
3.7,36
3.7,37
3.7,36
3.7,36
3.7,36
3.7,35
3.71,36
3.71,37
3.71,36
3.71,36
3.71,36
3.71,36
3.72,37
3.72,37
3.72,36
3.72,35
3.72,35
3.72,36
3.72,36
3.73,35
3.73,35
3.73,36
3.73,36
3.73,37
3.73,36
3.74,36
3.74,35
3.74,35
3.74,35
3.74,36
3.74,35
3.74,35
3.75,36
3.75,37
3.75,37
3.75,36
3.75,36
3.75,35
3.76,36
3.76,35
3.76,35
3.76,35
3.76,35
3.76,35
3.77,36
3.77,35
3.77,36
3.77,35
3.77,34
3.77,35
3.77,36
3.78,36
3.78,35
3.78,36
3.78,36
3.78,37
3.78,36
3.78,36
3.79,35
3.79,35
3.79,36
3.79,37
3.79,37
3.79,36
3.8,36
3.8,36
3.8,36
3.8,36
3.8,36
3.8,35
3.81,35
3.81,36
3.81,36
3.81,35
3.81,36
3.81,38
3.81,38
3.82,38
3.82,38
3.82,37
3.82,36
3.82,36
3.82,37
3.83,37
3.83,36
3.83,36
3.83,36
3.83,37
3.83,37
3.83,36
3.84,35
3.84,35
3.84,36
3.84,38
3.84,37
3.84,36
3.85,37
3.85,37
3.85,38
3.85,38
3.85,37
3.85,37
3.85,36
3.86,37
3.86,37
3.86,37
3.86,36
3.86,37
3.86,37
3.87,37
3.87,36
3.87,36
3.87,35
3.87,35
3.87,36
3.87,36
3.88,35
3.88,35
3.88,36
3.88,36
3.88,36
3.88,36
3.89,35
3.89,35
3.89,35
3.89,35
3.89,36
3.89,35
3.9,35
3.9,35
3.9,36
3.9,36
3.9,36
3.9,35
3.9,33
3.91,35
3.91,35
3.91,35
3.91,35
3.91,35
3.91,35
3.91,35
3.92,35
3.92,35
3.92,34
3.92,34
3.92,35
3.92,35
3.93,35
3.93,34
3.93,35
3.93,35
3.93,36
3.93,35
3.94,35
3.94,34
3.94,34
3.94,36
3.94,37
3.94,36
3.94,36
3.95,37
3.95,37
3.95,37
3.95,37
3.95,37
3.95,36
3.96,35
3.96,37
3.96,37
3.96,36
3.96,36
3.96,37
3.96,37
3.97,37
3.97,37
3.97,36
3.97,35
3.97,36
3.97,36
3.98,36
3.98,35
3.98,35
3.98,35
3.98,36
3.98,36
3.98,35
3.99,35
3.99,34
3.99,35
3.99,35
3.99,35
3.99,34
4.0,34
4.0,34
4.0,35
4.0,34
4.0,34
4.0,33
4.0,32
4.01,33
4.01,34
4.01,33
4.01,33
4.01,34
4.01,34
4.02,35
4.02,34
4.02,34
4.02,33
4.02,33
4.02,34
4.03,33
4.03,33
4.03,33
4.03,34
4.03,34
4.03,34
4.03,33
4.03,33
4.04,32
4.04,32
4.04,34
4.04,34
4.04,33
4.04,34
4.05,34
4.05,34
4.05,34
4.05,34
4.05,33
4.05,33
4.06,33
4.06,34
4.06,34
4.06,33
4.06,34
4.06,34
4.07,35
4.07,35
4.07,34
4.07,33
4.07,33
4.07,34
4.07,35
4.07,34
4.08,34
4.08,34
4.08,35
4.08,35
4.08,35
4.08,35
4.09,34
4.09,33
4.09,35
4.09,35
4.09,35
4.09,34
4.1,34
4.1,34
4.1,35
4.1,35
4.1,35
4.1,34
4.11,33
4.11,34
4.11,35
4.11,34
4.11,34
4.11,35
4.11,35
4.11,36
4.12,35
4.12,35
4.12,34
4.12,34
4.12,35
4.13,35
4.13,35
4.13,34
4.13,34
4.13,35
4.13,35
4.13,35
4.14,34
4.14,34
4.14,34
4.14,34
4.14,34
4.14,34
4.15,34
4.15,34
4.15,35
4.15,35
4.15,34
4.15,34
4.15,33
4.16,34
4.16,35
4.16,36
4.16,35
4.16,36
4.16,37
4.17,37
4.17,36
4.17,36
4.17,36
4.17,35
4.17,36
4.17,37
4.18,36
4.18,36
4.18,36
4.18,36
4.18,37
4.18,37
4.19,36
4.19,36
4.19,35
4.19,36
4.19,36
4.19,36
4.2,35
4.2,35
4.2,36
4.2,36
4.2,35
4.2,35
4.2,34
4.21,34
4.21,35
4.21,35
4.21,34
4.21,35
4.21,35
4.21,35
4.22,35
4.22,35
4.22,34
4.22,34
4.22,35
4.22,36
4.23,36
4.23,35
4.23,36
4.23,37
4.23,37
4.23,37
4.24,37
4.24,36
4.24,36
4.24,37
4.24,37
4.24,37
4.24,36
4.25,37
4.25,37
4.25,37
4.25,36
4.25,36
4.25,35
4.26,35
4.26,36
4.26,37
4.26,36
4.26,36
4.26,36
4.26,37
4.26,37
4.27,37
4.27,36
4.27,35
4.27,35
4.27,36
4.28,36
4.28,35
4.28,35
4.28,36
4.28,37
4.28,37
4.28,37
4.29,36
4.29,35
4.29,36
4.29,36
4.29,36
4.29,36
4.3,36
4.3,35
4.3,36
4.3,36
4.3,35
4.3,35
4.3,34
4.3,35
4.31,35
4.31,35
4.31,34
4.31,35
4.31,35
4.32,36
4.32,36
4.32,35
4.32,35
4.32,34
4.32,35
4.32,36
4.33,36
4.33,35
4.33,36
4.33,36
4.33,36
4.33,36
4.34,35
4.34,35
4.34,34
4.34,36
4.34,36
4.34,36
4.34,36
4.35,36
4.35,37
4.35,37
4.35,36
4.35,35
4.35,35
4.36,35
4.36,35
4.36,35
4.36,35
4.36,35
4.36,35
4.36,36
4.37,36
4.37,35
4.37,35
4.37,34
4.37,35
4.37,36
4.38,36
4.38,35
4.38,36
4.38,37
4.38,37
4.38,37
4.39,36
4.39,36
4.39,35
4.39,36
4.39,36
4.39,36
4.4,35
4.4,36
4.4,35
4.4,35
4.4,35
4.4,35
4.4,34
4.41,33
4.41,34
4.41,34
4.41,34
4.41,33
4.41,33
4.41,33
4.42,33
4.42,33
4.42,32
4.42,32
4.42,32
4.42,33
4.43,34
4.43,33
4.43,34
4.43,34
4.43,35
4.43,35
4.43,34
4.44,34
4.44,33
4.44,34
4.44,35
4.44,35
4.44,34
4.45,35
4.45,35
4.45,36
4.45,36
4.45,36
4.45,34
4.46,34
4.46,35
4.46,36
4.46,35
4.46,35
4.46,35
4.46,35
4.47,36
4.47,36
4.47,35
4.47,34
4.47,34
4.47,35
4.47,36
4.48,35
4.48,35
4.48,36
4.48,37
4.48,38
4.48,37
4.49,37
4.49,36
4.49,35
4.49,36
4.49,36
4.49,36
4.5,37
4.5,38
4.5,38
4.5,38
4.5,37
4.5,37
4.5,36
4.51,38
4.51,38
4.51,38
4.51,37
4.51,37
4.51,36
4.51,36
4.52,37
4.52,36
4.52,36
4.52,35
4.52,35
4.53,34
4.53,34
4.53,33
4.53,34
4.53,34
4.53,33
4.53,32
4.53,32
4.54,32
4.54,31
4.54,33
4.54,34
4.54,35
4.54,34
4.55,34
4.55,34
4.55,35
4.55,35
4.55,33
4.55,33
4.55,32
4.56,34
4.56,34
4.56,34
4.56,34
4.56,35
4.56,35
4.57,36
4.57,34
4.57,34
4.57,33
4.57,33
4.57,34
4.57,35
4.58,34
4.58,35
4.58,35
4.58,36
4.58,36
4.59,35
4.59,35
4.59,34
4.59,34
4.59,34
4.59,34
4.59,33
4.59,34
4.6,34
4.6,35
4.6,35
4.6,34
4.6,34
4.6,33
4.61,34
4.61,36
4.61,36
4.61,35
4.61,36
4.61,36
4.62,37
4.62,37
4.62,36
4.62,36
4.62,35
4.62,36
4.63,37
4.63,36
4.63,36
4.63,36
4.63,36
4.63,36
4.63,36
4.64,35
4.64,35
4.64,35
4.64,37
4.64,37
4.64,37
4.65,37
4.65,37
4.65,37
4.65,37
4.65,36
4.65,36
4.66,35
4.66,35
4.66,35
4.66,35
4.66,35
4.66,36
4.66,36
4.67,36
4.67,36
4.67,35
4.67,34
4.67,34
4.67,35
4.67,35
4.68,35
4.68,34
4.68,35
4.68,35
4.68,36
4.68,36
4.69,35
4.69,35
4.69,34
4.69,36
4.69,36
4.69,36
4.7,35
4.7,36
4.7,35
4.7,36
4.7,36
4.7,35
4.7,34
4.71,34
4.71,35
4.71,36
4.71,35
4.71,35
4.71,36
4.72,36
4.72,37
4.72,36
4.72,36
4.72,35
4.72,34
4.72,35
4.73,35
4.73,34
4.73,35
4.73,35
4.73,35
4.73,36
4.73,35
4.74,34
4.74,34
4.74,34
4.74,35
4.74,35
4.74,35
4.75,35
4.75,36
4.75,36
4.75,36
4.75,36
4.75,35
4.76,34
4.76,35
4.76,35
4.76,35
4.76,34
4.76,35
4.76,36
4.77,36
4.77,36
4.77,35
4.77,35
4.77,34
4.77,35
4.78,35
4.78,34
4.78,34
4.78,35
4.78,35
4.78,34
4.78,33
4.79,34
4.79,34
4.79,36
4.79,37
4.79,37
4.79,37
4.8,36
4.8,37
4.8,37
4.8,38
4.8,37
4.8,36
4.8,35
4.81,36
4.81,37
4.81,36
4.81,36
4.81,36
4.81,36
4.82,36
4.82,37
4.82,36
4.82,35
4.82,35
4.82,35
4.82,35
4.83,35
4.83,34
4.83,35
4.83,35
4.83,35
4.83,35
4.84,35
4.84,34
4.84,34
4.84,35
4.84,36
4.84,35
4.84,35
4.85,35
4.85,36
4.85,36
4.85,36
4.85,35
4.85,34
4.86,34
4.86,36
4.86,35
4.86,35
4.86,35
4.86,35
4.86,35
4.87,35
4.87,35
4.87,34
4.87,34
4.87,34
4.87,35
4.88,35
4.88,34
4.88,34
4.88,34
4.88,35
4.88,36
4.89,35
4.89,34
4.89,34
4.89,34
4.89,35
4.89,35
4.89,34
4.9,34
4.9,34
4.9,35
4.9,34
4.9,34
4.9,34
4.91,33
4.91,35
4.91,36
4.91,35
4.91,35
4.91,35
4.92,35
4.92,36
4.92,35
4.92,35
4.92,34
4.92,34
4.92,35
4.93,35
4.93,34
4.93,35
4.93,35
4.93,36
4.93,36
4.93,35
4.94,34
4.94,33
4.94,33
4.94,34
4.94,35
4.94,34
4.95,34
4.95,34
4.95,34
4.95,34
4.95,34
4.95,33
4.96,32
4.96,33
4.96,34
4.96,34
4.96,34
4.96,34
4.96,34
4.97,35
4.97,35
4.97,35
4.97,34
4.97,34
4.97,35
4.98,36
4.98,36
4.98,35
4.98,35
4.98,35
4.98,36
4.98,37
4.99,36
4.99,35
4.99,34
4.99,35
4.99,35
4.99,35
5.0,35
5.0,36
5.0,35
5.0,36
5.0,35
5.0,35
5.0,34
5.01,34
5.01,35
5.01,35
5.01,34
5.01,35
5.01,35
5.01,36
5.02,36
5.02,36
5.02,35
5.02,34
5.02,35
5.02,35
5.03,36
5.03,35
5.03,35
5.03,35
5.03,36
5.03,36
5.03,35
5.04,35
5.04,34
5.04,34
5.04,35
5.04,34
5.04,34
5.05,34
5.05,34
5.05,34
5.05,33
5.05,33
5.05,32
5.05,32
5.06,32
5.06,33
5.06,33
5.06,32
5.06,33
5.06,33
5.07,34
5.07,34
5.07,33
5.07,32
5.07,32
5.07,34
5.07,35
5.08,34
5.08,33
5.08,34
5.08,35
5.08,35
5.08,35
5.09,35
5.09,34
5.09,33
5.09,35
5.09,35
5.09,34
5.09,34
5.1,35
5.1,35
5.1,36
5.1,36
5.1,35
5.1,34
5.11,34
5.11,34
5.11,34
5.11,34
5.11,34
5.11,35
5.11,35
5.12,35
5.12,35
5.12,35
5.12,34
5.12,34
5.13,35
5.13,35
5.13,34
5.13,35
5.13,35
5.13,35
5.13,35
5.14,35
5.14,34
5.14,34
5.14,34
5.14,35
5.14,35
5.14,34
5.15,34
5.15,34
5.15,34
5.15,34
5.15,33
5.15,33
5.16,32
5.16,33
5.16,32
5.16,32
5.16,32
5.16,32
5.17,32
5.17,34
5.17,34
5.17,33
5.17,32
5.17,32
5.17,33
5.18,34
5.18,34
5.18,34
5.18,36
5.18,36
5.18,36
5.19,35
5.19,35
5.19,34
5.19,34
5.19,35
5.19,36
5.19,35
5.2,35
5.2,35
5.2,36
5.2,36
5.2,35
5.2,35
5.2,34
5.21,35
5.21,35
5.21,36
5.21,35
5.21,36
5.21,36
5.22,36
5.22,36
5.22,35
5.22,35
5.22,34
5.22,35
5.23,36
5.23,36
5.23,35
5.23,36
5.23,37
5.23,38
5.23,37
5.24,37
5.24,36
5.24,35
5.24,37
5.24,37
5.24,37
5.25,37
5.25,38
5.25,38
5.25,38
5.25,38
5.25,37
5.26,36
5.26,36
5.26,37
5.26,37
5.26,36
5.26,36
5.26,37
5.26,37
5.27,37
5.27,36
5.27,36
5.27,35
5.27,36
5.27,36
5.28,37
5.28,36
5.28,37
5.28,37
5.28,38
5.28,37
5.28,37
5.29,36
5.29,35
5.29,36
5.29,37
5.29,36
5.3,36
5.3,35
5.3,35
5.3,36
5.3,35
5.3,35
5.3,34
5.3,34
5.31,35
5.31,35
5.31,35
5.31,34
5.31,35
5.32,35
5.32,35
5.32,35
5.32,34
5.32,34
5.32,33
5.32,35
5.32,35
5.33,35
5.33,35
5.33,35
5.33,36
5.33,37
5.34,36
5.34,36
5.34,35
5.34,35
5.34,36
5.34,36
5.34,35
5.35,35
5.35,36
5.35,36
5.35,36
5.35,35
5.35,35
5.36,33
5.36,34
5.36,35
5.36,35
5.36,34
5.36,35
5.36,35
5.36,35
5.37,35
5.37,35
5.37,34
5.37,34
5.37,35
5.37,36
5.38,36
5.38,35
5.38,36
5.38,35
5.38,37
5.39,36
5.39,35
5.39,35
5.39,34
5.39,35
5.39,36
5.39,35
5.4,35
5.4,35
5.4,35
5.4,36
5.4,35
5.4,35
5.4,34
5.41,33
5.41,34
5.41,34
5.41,34
5.41,34
5.41,34
5.42,35
5.42,36
5.42,35
5.42,35
5.42,34
5.42,34
5.43,35
5.43,35
5.43,34
5.43,34
5.43,34
5.43,35
5.43,35
5.44,35
5.44,34
5.44,33
5.44,34
5.44,35
5.44,35
5.44,34
5.45,35
5.45,35
5.45,36
