Time_s,ADC
0.0,39
0.0,38
0.0,39
0.0,39
0.01,39
0.01,38
0.01,38
0.01,37
0.01,37
0.01,37
0.01,37
0.02,36
0.02,36
0.02,36
0.02,35
0.02,35
0.02,35
0.03,36
0.03,35
0.03,34
0.03,34
0.03,33
0.03,33
0.03,33
0.04,33
0.04,32
0.04,32
0.04,32
0.04,33
0.04,32
0.05,32
0.05,32
0.05,33
0.05,32
0.05,32
0.05,32
0.05,32
0.06,33
0.06,33
0.06,32
0.06,31
0.06,31
0.06,32
0.07,31
0.07,31
0.07,32
0.07,31
0.07,30
0.07,30
0.07,30
0.08,30
0.08,30
0.08,29
0.08,29
0.08,29
0.08,28
0.09,29
0.09,29
0.09,29
0.09,28
0.09,29
0.09,29
0.1,28
0.1,29
0.1,29
0.1,29
0.1,29
0.1,29
0.1,29
0.11,30
0.11,29
0.11,29
0.11,29
0.11,29
0.11,29
0.11,29
0.12,29
0.12,29
0.12,30
0.12,30
0.12,30
0.12,29
0.12,31
0.13,31
0.13,31
0.13,31
0.13,32
0.13,31
0.13,32
0.14,33
0.14,33
0.14,33
0.14,33
0.14,33
0.14,32
0.14,32
0.15,32
0.15,32
0.15,31
0.15,31
0.15,32
0.15,31
0.16,31
0.16,30
0.16,30
0.16,30
0.16,29
0.16,29
0.17,30
0.17,29
0.17,29
0.17,31
0.17,32
0.17,32
0.17,32
0.18,32
0.18,32
0.18,33
0.18,35
0.18,34
0.18,34
0.19,34
0.19,34
0.19,34
0.19,33
0.19,33
0.19,33
0.19,32
0.2,32
0.2,32
0.2,31
0.2,31
0.2,32
0.2,32
0.2,31
0.21,31
0.21,31
0.21,30
0.21,30
0.21,30
0.22,30
0.22,29
0.22,29
0.22,30
0.22,30
0.22,30
0.22,30
0.22,30
0.23,29
0.23,29
0.23,31
0.23,31
0.23,31
0.23,31
0.24,32
0.24,31
0.24,32
0.24,31
0.24,32
0.24,32
0.25,31
0.25,31
0.25,31
0.25,30
0.25,31
0.25,31
0.25,32
0.26,32
0.26,32
0.26,31
0.26,31
0.26,31
0.26,30
0.26,30
0.27,30
0.27,32
0.27,35
0.27,35
0.27,34
0.27,35
0.28,37
0.28,37
0.28,36
0.28,37
0.28,36
0.28,36
0.28,36
0.29,37
0.29,37
0.29,37
0.29,37
0.29,36
0.29,35
0.3,34
0.3,34
0.3,33
0.3,33
0.3,34
0.3,34
0.31,35
0.31,35
0.31,36
0.31,35
0.31,34
0.31,34
0.31,34
0.32,35
0.32,35
0.32,35
0.32,34
0.32,34
0.32,34
0.32,33
0.33,34
0.33,36
0.33,36
0.33,36
0.33,36
0.33,35
0.34,35
0.34,34
0.34,34
0.34,33
0.34,34
0.34,34
0.35,33
0.35,33
0.35,33
0.35,32
0.35,33
0.35,33
0.35,34
0.36,34
0.36,34
0.36,33
0.36,33
0.36,32
0.36,33
0.37,33
0.37,32
0.37,33
0.37,34
0.37,35
0.37,35
0.37,35
0.38,34
0.38,33
0.38,33
0.38,33
0.38,32
0.38,33
0.39,35
0.39,36
0.39,35
0.39,35
0.39,34
0.39,34
0.4,33
0.4,32
0.4,32
0.4,32
0.4,31
0.4,31
0.4,32
0.41,32
0.41,31
0.41,31
0.41,31
0.41,31
0.41,30
0.41,30
0.42,29
0.42,30
0.42,30
0.42,31
0.42,31
0.42,31
0.43,30
0.43,30
0.43,30
0.43,30
0.43,30
0.43,29
0.44,29
0.44,29
0.44,29
0.44,31
0.44,30
0.44,31
0.44,30
0.45,30
0.45,30
0.45,29
0.45,29
0.45,31
0.45,34
0.45,35
0.46,35
0.46,36
0.46,36
0.46,36
0.46,35
0.46,36
0.46,36
0.47,35
0.47,36
0.47,37
0.47,37
0.47,37
0.47,36
0.48,35
0.48,34
0.48,35
0.48,34
0.48,33
0.48,34
0.49,36
0.49,37
0.49,39
0.49,39
0.49,38
0.49,37
0.5,37
0.5,36
0.5,36
0.5,35
0.5,35
0.5,36
0.5,36
0.5,36
0.51,35
0.51,35
0.51,34
0.51,35
0.51,35
0.52,35
0.52,34
0.52,35
0.52,35
0.52,35
0.52,36
0.52,35
0.53,34
0.53,34
0.53,33
0.53,33
0.53,32
0.53,32
0.54,32
0.54,33
0.54,34
0.54,35
0.54,35
0.54,34
0.54,34
0.55,34
0.55,33
0.55,32
0.55,32
0.55,33
0.55,34
0.56,33
0.56,32
0.56,32
0.56,32
0.56,32
0.56,31
0.56,31
0.57,31
0.57,30
0.57,31
0.57,32
0.57,32
0.57,33
0.57,32
0.58,31
0.58,31
0.58,31
0.58,31
0.58,30
0.58,30
0.59,31
0.59,32
0.59,32
0.59,32
0.59,31
0.59,31
0.6,31
0.6,32
0.6,32
0.6,31
0.6,32
0.6,33
0.61,34
0.61,34
0.61,33
0.61,34
0.61,33
0.61,32
0.61,33
0.61,32
0.62,32
0.62,32
0.62,33
0.62,33
0.62,34
0.63,33
0.63,33
0.63,32
0.63,32
0.63,32
0.63,31
0.63,32
0.63,35
0.64,35
0.64,35
0.64,34
0.64,34
0.64,34
0.65,33
0.65,33
0.65,33
0.65,32
0.65,32
0.65,33
0.65,34
0.66,34
0.66,34
0.66,33
0.66,33
0.66,33
0.66,32
0.67,32
0.67,32
0.67,32
0.67,33
0.67,33
0.67,32
0.67,31
0.68,31
0.68,31
0.68,31
0.68,30
0.68,29
0.68,32
0.69,34
0.69,35
0.69,36
0.69,38
0.69,38
0.69,37
0.69,36
0.7,35
0.7,35
0.7,35
0.7,34
0.7,35
0.7,36
0.7,36
0.71,37
0.71,36
0.71,35
0.71,35
0.71,35
0.71,34
0.71,35
0.72,35
0.72,37
0.72,38
0.72,39
0.72,41
0.72,40
0.73,39
0.73,40
0.73,40
0.73,39
0.73,38
0.74,38
0.74,38
0.74,39
0.74,39
0.74,39
0.74,38
0.74,37
0.75,37
0.75,36
0.75,36
0.75,35
0.75,35
0.75,36
0.75,35
0.76,35
0.76,35
0.76,34
0.76,34
0.76,33
0.76,34
0.76,33
0.77,33
0.77,33
0.77,34
0.77,33
0.77,33
0.77,32
0.78,32
0.78,32
0.78,32
0.78,34
0.78,34
0.78,33
0.79,34
0.79,35
0.79,35
0.79,34
0.79,34
0.79,33
0.79,32
0.8,33
0.8,34
0.8,34
0.8,33
0.8,34
0.8,35
0.81,35
0.81,35
0.81,34
0.81,34
0.81,33
0.81,33
0.81,33
0.82,32
0.82,32
0.82,33
0.82,34
0.82,35
0.82,36
0.83,36
0.83,35
0.83,35
0.83,35
0.83,35
0.83,35
0.83,34
0.84,36
0.84,37
0.84,37
0.84,37
0.84,36
0.84,36
0.85,35
0.85,35
0.85,35
0.85,34
0.85,33
0.85,34
0.86,35
0.86,36
0.86,36
0.86,36
0.86,35
0.86,34
0.86,35
0.87,34
0.87,35
0.87,38
0.87,40
0.87,40
0.87,40
0.88,40
0.88,40
0.88,40
0.88,39
0.88,39
0.88,38
0.88,38
0.88,37
0.89,37
0.89,37
0.89,36
0.89,36
0.89,35
0.89,35
0.9,34
0.9,34
0.9,33
0.9,33
0.9,33
0.9,33
0.91,32
0.91,32
0.91,32
0.91,31
0.91,31
0.91,30
0.91,30
0.92,30
0.92,30
0.92,30
0.92,31
0.92,31
0.92,30
0.93,30
0.93,30
0.93,30
0.93,31
0.93,31
0.93,31
0.93,30
0.94,31
0.94,32
0.94,33
0.94,32
0.94,32
0.94,32
0.95,33
0.95,33
0.95,34
0.95,34
0.95,34
0.95,36
0.95,36
0.96,36
0.96,35
0.96,36
0.96,35
0.96,35
0.96,35
0.97,34
0.97,34
0.97,34
0.97,35
0.97,36
0.97,36
0.98,36
0.98,36
0.98,36
0.98,36
0.98,38
0.98,38
0.98,37
0.99,37
0.99,37
0.99,36
0.99,36
0.99,36
0.99,34
1.0,34
1.0,34
1.0,34
1.0,34
1.0,33
1.0,34
1.0,36
1.01,37
1.01,36
1.01,36
1.01,36
1.01,35
1.01,35
1.01,34
1.02,34
1.02,33
1.02,33
1.02,34
1.02,35
1.02,35
1.03,35
1.03,34
1.03,33
1.03,34
1.03,34
1.03,34
1.03,35
1.04,36
1.04,35
1.04,35
1.04,34
1.04,34
1.04,36
1.05,40
1.05,41
1.05,42
1.05,45
1.05,46
1.05,45
1.05,44
1.06,43
1.06,42
1.06,42
1.06,41
1.06,40
1.06,41
1.07,40
1.07,41
1.07,45
1.07,48
1.07,49
1.07,49
1.08,49
1.08,50
1.08,49
1.08,49
1.08,49
1.08,48
1.08,48
1.09,49
1.09,51
1.09,52
1.09,53
1.09,53
1.09,51
1.1,50
1.1,50
1.1,49
1.1,48
1.1,48
1.1,49
1.1,50
1.11,51
1.11,53
1.11,53
1.11,52
1.11,50
1.11,49
1.12,49
1.12,48
1.12,47
1.12,48
1.12,49
1.12,49
1.12,49
1.13,48
1.13,47
1.13,46
1.13,46
1.13,57
1.13,74
1.13,88
1.14,93
1.14,96
1.14,108
1.14,121
1.14,126
1.14,126
1.15,123
1.15,120
1.15,116
1.15,113
1.15,112
1.15,111
1.16,111
1.16,110
1.16,106
1.16,104
1.16,103
1.16,99
1.17,97
1.17,96
1.17,96
1.17,97
1.17,97
1.17,98
1.17,97
1.18,95
1.18,95
1.18,94
1.18,92
1.18,91
1.18,90
1.18,89
1.19,89
1.19,88
1.19,88
1.19,88
1.19,86
1.2,87
1.2,86
1.2,84
1.2,82
1.2,80
1.2,79
1.21,79
1.21,79
1.21,81
1.21,81
1.21,80
1.21,81
1.21,80
1.22,77
1.22,75
1.22,74
1.22,73
1.22,73
1.22,73
1.22,73
1.23,71
1.23,70
1.23,71
1.23,70
1.23,71
1.23,72
1.24,76
1.24,79
1.24,83
1.24,86
1.24,85
1.24,83
1.25,82
1.25,81
1.25,80
1.25,81
1.25,86
1.25,91
1.25,102
1.25,118
1.26,121
1.26,131
1.26,145
1.26,152
1.26,151
1.26,148
1.27,143
1.27,141
1.27,139
1.27,139
1.27,139
1.27,137
1.28,133
1.28,129
1.28,125
1.28,122
1.28,120
1.28,116
1.29,114
1.29,111
1.29,108
1.29,106
1.29,103
1.29,100
1.3,97
1.3,94
1.3,92
1.3,90
1.3,87
1.3,85
1.3,83
1.31,82
1.31,80
1.31,78
1.31,76
1.31,73
1.31,72
1.32,70
1.32,68
1.32,66
1.32,65
1.32,64
1.32,62
1.33,61
1.33,59
1.33,58
1.33,59
1.33,59
1.33,58
1.33,59
1.34,59
1.34,57
1.34,55
1.34,55
1.34,53
1.34,53
1.35,53
1.35,52
1.35,64
1.35,80
1.35,91
1.35,92
1.35,102
1.36,113
1.36,117
1.36,119
1.36,119
1.36,117
1.36,115
1.37,112
1.37,109
1.37,108
1.37,111
1.37,113
1.37,113
1.37,111
1.38,109
1.38,109
1.38,108
1.38,108
1.38,105
1.38,102
1.39,101
1.39,101
1.39,102
1.39,109
1.39,121
1.39,133
1.4,139
1.4,139
1.4,147
1.4,152
1.4,151
1.4,146
1.4,141
1.41,137
1.41,134
1.41,133
1.41,130
1.41,126
1.41,129
1.42,143
1.42,156
1.42,156
1.42,168
1.42,178
1.42,178
1.43,173
1.43,167
1.43,163
1.43,158
1.43,153
1.43,148
1.44,144
1.44,139
1.44,135
1.44,132
1.44,128
1.44,123
1.45,120
1.45,116
1.45,113
1.45,114
1.45,114
1.45,112
1.46,111
1.46,140
1.46,209
1.46,279
1.46,298
1.46,332
1.47,403
1.47,443
1.47,457
1.47,455
1.47,444
1.47,432
1.47,417
1.48,403
1.48,391
1.48,383
1.48,375
1.48,372
1.48,367
1.49,356
1.49,344
1.49,337
1.49,333
1.49,325
1.49,315
1.5,305
1.5,296
1.5,288
1.5,279
1.5,271
1.5,273
1.5,286
1.51,290
1.51,286
1.51,297
1.51,298
1.51,289
1.51,279
1.52,274
1.52,267
1.52,262
1.52,272
1.52,283
1.52,283
1.52,298
1.53,310
1.53,313
1.53,315
1.53,311
1.53,303
1.54,301
1.54,297
1.54,290
1.54,283
1.54,274
1.54,268
1.54,270
1.55,278
1.55,291
1.55,296
1.55,293
1.55,286
1.55,278
1.56,270
1.56,261
1.56,253
1.56,246
1.56,262
1.56,293
1.57,298
1.57,320
1.57,346
1.57,352
1.57,350
1.57,342
1.58,333
1.58,324
1.58,314
1.58,306
1.58,299
1.58,292
1.59,283
1.59,275
1.59,268
1.59,263
1.59,256
1.59,255
1.59,250
1.6,249
1.6,258
1.6,284
1.6,287
1.6,299
1.6,324
1.61,328
1.61,322
1.61,326
1.61,327
1.61,328
1.61,347
1.61,359
1.62,357
1.62,349
1.62,338
1.62,327
1.62,316
1.63,305
1.63,295
1.63,286
1.63,279
1.63,270
1.63,263
1.63,255
1.64,247
1.64,241
1.64,233
1.64,225
1.64,219
1.64,215
1.65,211
1.65,207
1.65,205
1.65,198
1.65,193
1.65,196
1.65,193
1.66,199
1.66,208
1.66,210
1.66,207
1.66,202
1.66,199
1.67,195
1.67,190
1.67,185
1.67,179
1.67,174
1.67,175
1.68,185
1.68,188
1.68,197
1.68,211
1.68,220
1.68,222
1.68,221
1.69,216
1.69,218
1.69,225
1.69,221
1.69,217
1.7,229
1.7,229
1.7,228
1.7,230
1.7,229
1.7,228
1.7,228
1.71,231
1.71,233
1.71,237
1.71,242
1.71,243
1.72,242
1.72,239
1.72,232
1.72,224
1.72,220
1.72,216
1.72,215
1.73,215
1.73,213
1.73,209
1.73,202
1.73,200
1.73,199
1.74,199
1.74,196
1.74,208
1.74,225
1.74,229
1.74,249
1.74,274
1.75,283
1.75,280
1.75,275
1.75,268
1.75,260
1.75,252
1.76,246
1.76,239
1.76,233
1.76,226
1.76,225
1.76,223
1.77,220
1.77,216
1.77,210
1.77,208
1.77,206
1.77,203
1.77,198
1.78,192
1.78,188
1.78,184
1.78,180
1.78,181
1.78,183
1.79,180
1.79,177
1.79,172
1.79,167
1.79,162
1.79,161
1.8,161
1.8,158
1.8,153
1.8,150
1.8,146
1.8,144
1.81,144
1.81,144
1.81,144
1.81,142
1.81,138
1.81,134
1.82,130
1.82,127
1.82,124
1.82,126
1.82,127
1.82,127
1.82,129
1.83,139
1.83,160
1.83,164
1.83,169
1.83,171
1.84,167
1.84,165
1.84,167
1.84,168
1.84,168
1.84,168
1.84,167
1.85,167
1.85,165
1.85,161
1.85,156
1.85,152
1.85,150
1.86,148
1.86,145
1.86,142
1.86,138
1.86,137
1.86,136
1.86,133
1.87,131
1.87,130
1.87,132
1.87,132
1.87,132
1.87,132
1.88,132
1.88,132
1.88,137
1.88,139
1.88,135
1.88,132
1.89,132
1.89,132
1.89,132
1.89,135
1.89,136
1.89,133
1.9,129
1.9,125
1.9,122
1.9,118
1.9,115
1.9,116
1.9,122
1.91,130
1.91,142
1.91,143
1.91,144
1.91,148
1.91,147
1.91,150
1.92,147
1.92,152
1.92,159
1.92,165
1.92,174
1.93,186
1.93,195
1.93,192
1.93,194
1.93,201
1.93,201
1.93,195
1.94,201
1.94,206
1.94,200
1.94,195
1.94,190
1.94,185
1.95,184
1.95,183
1.95,183
1.95,184
1.95,186
1.95,187
1.96,188
1.96,189
1.96,188
1.96,187
1.96,183
1.96,177
1.97,173
1.97,168
1.97,166
1.97,167
1.97,167
1.97,165
1.98,163
1.98,157
1.98,154
1.98,153
1.98,150
1.98,151
1.98,153
1.99,151
1.99,149
1.99,147
1.99,145
1.99,142
1.99,137
2.0,134
2.0,132
2.0,129
2.0,127
2.0,130
2.0,142
2.01,156
2.01,159
2.01,158
2.01,157
2.01,162
2.01,164
2.02,161
2.02,157
2.02,155
2.02,153
2.02,154
2.02,158
2.02,164
2.03,162
2.03,157
2.03,157
2.03,165
2.03,174
2.03,178
2.04,178
2.04,173
2.04,173
2.04,173
2.04,171
2.04,167
2.05,162
2.05,158
2.05,155
2.05,158
2.05,160
2.05,166
2.06,167
2.06,164
2.06,159
2.06,154
2.06,150
2.06,148
2.06,145
2.07,143
2.07,143
2.07,144
2.07,145
2.07,150
2.07,169
2.08,199
2.08,203
2.08,222
2.08,236
2.08,236
2.08,229
2.09,222
2.09,217
2.09,212
2.09,205
2.09,198
2.09,191
2.1,185
2.1,181
2.1,183
2.1,182
2.1,178
2.1,173
2.1,172
2.11,170
2.11,166
2.11,162
2.11,157
2.11,154
2.11,152
2.12,149
2.12,157
2.12,167
2.12,171
2.12,175
2.12,174
2.13,184
2.13,189
2.13,184
2.13,183
2.13,179
2.13,174
2.14,170
2.14,166
2.14,162
2.14,159
2.14,161
2.14,159
2.14,163
2.15,160
2.15,155
2.15,154
2.15,155
2.15,154
2.15,154
2.16,152
2.16,148
2.16,143
2.16,139
2.16,135
2.16,136
2.17,133
2.17,131
2.17,129
2.17,129
2.17,134
2.17,138
2.17,140
2.18,138
2.18,134
2.18,130
2.18,126
2.18,122
2.19,121
2.19,123
2.19,125
2.19,127
2.19,129
2.19,130
2.19,132
2.2,136
2.2,137
2.2,135
2.2,131
2.2,129
2.2,129
2.21,129
2.21,128
2.21,133
2.21,135
2.21,134
2.21,142
2.21,150
2.22,150
2.22,154
2.22,151
2.22,150
2.22,149
2.23,151
2.23,151
2.23,149
2.23,157
2.23,192
2.23,220
2.23,218
2.24,214
2.24,219
2.24,230
2.24,227
2.24,221
2.24,217
2.25,223
2.25,229
2.25,229
2.25,226
2.25,219
2.25,212
2.25,207
2.26,206
2.26,207
2.26,207
2.26,206
2.26,209
2.27,211
2.27,209
2.27,205
2.27,202
2.27,199
2.27,194
2.27,188
2.28,182
2.28,176
2.28,171
2.28,167
2.28,164
2.28,161
2.29,160
2.29,160
2.29,161
2.29,160
2.29,160
2.29,156
2.3,151
2.3,149
2.3,146
2.3,142
2.3,140
2.3,138
2.31,139
2.31,150
2.31,177
2.31,188
2.31,197
2.31,202
2.31,202
2.32,199
2.32,192
2.32,187
2.32,183
2.32,179
2.32,174
2.33,172
2.33,174
2.33,197
2.33,241
2.33,278
2.33,280
2.34,296
2.34,350
2.34,367
2.34,361
2.34,351
2.34,341
2.34,330
2.35,320
2.35,310
2.35,301
2.35,297
2.35,296
2.35,301
2.36,302
2.36,296
2.36,290
2.36,280
2.36,271
2.36,263
2.37,256
2.37,250
2.37,245
2.37,243
2.37,242
2.37,240
2.38,236
2.38,229
2.38,222
2.38,214
2.38,208
2.38,202
2.38,198
2.39,201
2.39,207
2.39,208
2.39,207
2.39,203
2.39,198
2.4,195
2.4,192
2.4,189
2.4,203
2.4,250
2.4,290
2.41,294
2.41,315
2.41,353
2.41,378
2.41,377
2.41,368
2.42,358
2.42,346
2.42,337
2.42,331
2.42,327
2.42,321
2.42,316
2.43,310
2.43,301
2.43,295
2.43,288
2.43,279
2.44,272
2.44,266
2.44,263
2.44,258
2.44,252
2.44,246
2.44,239
2.45,231
2.45,225
2.45,219
2.45,212
2.45,209
2.45,206
2.46,212
2.46,227
2.46,228
2.46,231
2.46,231
2.46,231
2.46,226
2.47,219
2.47,212
2.47,207
2.47,205
2.47,202
2.48,199
2.48,196
2.48,193
2.48,194
2.48,213
2.48,235
2.48,242
2.49,257
2.49,252
2.49,252
2.49,249
2.49,245
2.49,238
2.5,233
2.5,226
2.5,218
2.5,212
2.5,209
2.5,208
2.5,208
2.51,207
2.51,207
2.51,206
2.51,202
2.51,200
2.51,196
2.52,193
2.52,189
2.52,184
2.52,183
2.52,181
2.52,179
2.53,177
2.53,173
2.53,167
2.53,163
2.53,158
2.53,154
2.54,158
2.54,176
2.54,192
2.54,203
2.54,225
2.54,225
2.54,221
2.55,215
2.55,209
2.55,205
2.55,199
2.55,193
2.55,187
2.56,181
2.56,175
2.56,170
2.56,164
2.56,159
2.56,154
2.57,149
2.57,147
2.57,153
2.57,152
2.57,148
2.57,146
2.58,141
2.58,139
2.58,139
2.58,136
2.58,133
2.58,129
2.58,125
2.59,124
2.59,127
2.59,125
2.59,127
2.59,151
2.59,190
2.6,216
2.6,224
2.6,257
2.6,293
2.6,299
2.6,292
2.61,283
2.61,274
2.61,265
2.61,256
2.61,247
2.61,241
2.62,234
2.62,228
2.62,225
2.62,232
2.62,244
2.62,242
2.62,244
2.63,240
2.63,233
2.63,228
2.63,226
2.63,222
2.63,219
2.64,216
2.64,212
2.64,209
2.64,207
2.64,207
2.64,207
2.65,202
2.65,195
2.65,189
2.65,183
2.65,177
2.65,173
2.66,171
2.66,168
2.66,165
2.66,161
2.66,156
2.66,157
2.67,186
2.67,223
2.67,237
2.67,274
2.67,278
2.67,271
2.67,262
2.68,253
2.68,247
2.68,242
2.68,236
2.68,233
2.68,228
2.69,221
2.69,214
2.69,208
2.69,201
2.69,195
2.69,189
2.7,183
2.7,179
2.7,173
2.7,170
2.7,167
2.7,165
2.71,162
2.71,160
2.71,156
2.71,151
2.71,147
2.71,149
2.71,148
2.72,148
2.72,144
2.72,143
2.72,150
2.72,153
2.72,155
2.73,151
2.73,149
2.73,149
2.73,145
2.73,143
2.73,141
2.74,137
2.74,133
2.74,130
2.74,136
2.74,147
2.74,147
2.75,156
2.75,158
2.75,159
2.75,157
2.75,154
2.75,149
2.75,144
2.76,139
2.76,135
2.76,131
2.76,127
2.76,123
2.76,119
2.77,118
2.77,115
2.77,112
2.77,112
2.77,109
2.77,106
2.78,105
2.78,103
2.78,100
2.78,98
2.78,97
2.78,96
2.79,94
2.79,92
2.79,90
2.79,90
2.79,92
2.79,93
2.79,94
2.8,94
2.8,91
2.8,89
2.8,90
2.8,88
2.8,87
2.8,87
2.81,85
2.81,85
2.81,89
2.81,90
2.81,90
2.81,88
2.82,86
2.82,84
2.82,83
2.82,83
2.82,83
2.82,83
2.83,83
2.83,81
2.83,79
2.83,77
2.83,75
2.83,73
2.83,71
2.84,69
2.84,67
2.84,67
2.84,67
2.84,68
2.84,67
2.85,68
2.85,68
2.85,68
2.85,72
2.85,80
2.85,81
2.85,80
2.86,79
2.86,78
2.86,77
2.86,79
2.86,81
2.86,81
2.87,80
2.87,79
2.87,77
2.87,74
2.87,72
2.87,70
2.87,68
2.88,69
2.88,75
2.88,79
2.88,79
2.88,81
2.88,81
2.89,80
2.89,78
2.89,76
2.89,74
2.89,73
2.89,72
2.89,71
2.9,71
2.9,70
2.9,71
2.9,73
2.9,73
2.9,74
2.91,72
2.91,70
2.91,68
2.91,68
2.91,75
2.91,76
2.92,85
2.92,96
2.92,100
2.92,99
2.92,96
2.92,94
2.92,91
2.93,89
2.93,86
2.93,85
2.93,83
2.93,80
2.93,80
2.93,77
2.94,75
2.94,74
2.94,72
2.94,70
2.94,68
2.94,67
2.95,67
2.95,65
2.95,64
2.95,63
2.95,61
2.95,59
2.96,58
2.96,57
2.96,56
2.96,55
2.96,57
2.96,58
2.96,60
2.97,62
2.97,64
2.97,64
2.97,62
2.97,61
2.97,61
2.98,61
2.98,61
2.98,61
2.98,60
2.98,58
2.98,57
2.98,56
2.98,54
2.99,53
2.99,52
2.99,52
2.99,52
2.99,51
3.0,51
3.0,50
3.0,51
3.0,51
3.0,50
3.0,48
3.0,49
3.01,50
3.01,50
3.01,50
3.01,50
3.01,49
3.01,51
3.02,50
3.02,49
3.02,48
3.02,48
3.02,48
3.02,48
3.02,47
3.03,47
3.03,45
3.03,45
3.03,44
3.03,43
3.03,42
3.04,41
3.04,41
3.04,43
3.04,45
3.04,46
3.04,49
3.04,50
3.05,48
3.05,48
3.05,47
3.05,47
3.05,45
3.05,46
3.06,48
3.06,49
3.06,51
3.06,53
3.06,54
3.06,54
3.06,54
3.07,53
3.07,52
3.07,51
3.07,53
3.07,57
3.07,60
3.08,61
3.08,61
3.08,59
3.08,58
3.08,58
3.08,56
3.08,55
3.09,54
3.09,55
3.09,57
3.09,57
3.09,56
3.09,58
3.1,59
3.1,62
3.1,63
3.1,63
3.1,64
3.1,65
3.1,64
3.11,63
3.11,61
3.11,60
3.11,59
3.11,57
3.11,56
3.12,55
3.12,55
3.12,56
3.12,60
3.12,66
3.12,71
3.13,73
3.13,74
3.13,73
3.13,71
3.13,70
3.13,68
3.13,66
3.14,66
3.14,66
3.14,68
3.14,70
3.14,72
3.14,74
3.14,74
3.15,72
3.15,70
3.15,69
3.15,69
3.15,70
3.15,72
3.16,74
3.16,75
3.16,75
3.16,77
3.16,77
3.16,78
3.17,79
3.17,82
3.17,89
3.17,101
3.17,116
3.17,131
3.17,143
3.18,153
3.18,159
3.18,162
3.18,167
3.18,170
3.18,172
3.19,173
3.19,177
3.19,181
3.19,184
3.19,187
3.19,189
3.19,188
3.2,189
3.2,189
3.2,188
3.2,188
3.2,191
3.21,194
3.21,198
3.21,203
3.21,208
3.21,211
3.21,216
3.21,224
3.22,230
3.22,234
3.22,238
3.22,241
3.22,241
3.22,239
3.23,237
3.23,235
3.23,232
3.23,230
3.23,229
3.23,228
3.24,229
3.24,231
3.24,233
3.24,232
3.24,226
3.24,218
3.25,211
3.25,204
3.25,198
3.25,191
3.25,185
3.25,181
3.25,178
3.26,177
3.26,175
3.26,175
3.26,173
3.26,170
3.26,168
3.27,165
3.27,162
3.27,160
3.27,159
3.27,160
3.27,159
3.28,158
3.28,157
3.28,154
3.28,153
3.28,153
3.28,151
3.28,150
3.29,150
3.29,150
3.29,149
3.29,148
3.29,146
3.29,142
3.3,137
3.3,136
3.3,139
3.3,143
3.3,149
3.3,158
3.31,168
3.31,180
3.31,193
3.31,202
3.31,204
3.31,202
3.32,197
3.32,190
3.32,186
3.32,184
3.32,186
3.32,188
3.32,190
3.33,191
3.33,190
3.33,189
3.33,190
3.33,190
3.34,190
3.34,191
3.34,193
3.34,196
3.34,195
3.34,193
3.34,189
3.35,183
3.35,179
3.35,176
3.35,173
3.35,174
3.35,179
3.36,185
3.36,189
3.36,188
3.36,183
3.36,179
3.36,175
3.36,170
3.37,164
3.37,161
3.37,159
3.37,159
3.37,160
3.38,160
3.38,159
3.38,156
3.38,153
3.38,153
3.38,153
3.38,154
3.39,155
3.39,155
3.39,155
3.39,152
3.39,149
3.39,144
3.4,140
3.4,137
3.4,132
3.4,128
3.4,125
3.4,125
3.4,127
3.41,129
3.41,132
3.41,134
3.41,132
3.41,129
3.42,127
3.42,123
3.42,120
3.42,118
3.42,119
3.42,120
3.42,119
3.43,118
3.43,117
3.43,114
3.43,114
3.43,115
3.43,118
3.44,122
3.44,125
3.44,128
3.44,134
3.44,136
3.44,134
3.44,132
3.45,133
3.45,136
3.45,137
3.45,134
3.45,130
3.45,129
3.46,128
3.46,126
3.46,126
3.46,126
3.46,124
3.46,123
3.47,123
3.47,123
3.47,122
3.47,121
3.47,120
3.47,117
3.48,113
3.48,110
3.48,106
3.48,103
3.48,101
3.48,98
3.48,96
3.49,94
3.49,95
3.49,98
3.49,99
3.49,99
3.49,97
3.5,94
3.5,92
3.5,90
3.5,90
3.5,88
3.5,85
3.51,85
3.51,84
3.51,82
3.51,81
3.51,79
3.51,77
3.51,75
3.52,74
3.52,74
3.52,72
3.52,70
3.52,68
3.52,66
3.53,65
3.53,64
3.53,62
3.53,62
3.53,60
3.53,59
3.53,57
3.54,57
3.54,58
3.54,59
3.54,58
3.54,57
3.54,56
3.55,58
3.55,59
3.55,58
3.55,59
3.55,60
3.55,61
3.55,60
3.56,59
3.56,63
3.56,66
3.56,70
3.56,75
3.56,80
3.57,83
3.57,86
3.57,86
3.57,84
3.57,82
3.57,80
3.57,78
3.58,76
3.58,73
3.58,72
3.58,70
3.58,68
3.58,67
3.59,64
3.59,63
3.59,63
3.59,62
3.59,61
3.59,60
3.6,61
3.6,62
3.6,61
3.6,62
3.6,63
3.6,63
3.6,63
3.61,62
3.61,61
3.61,60
3.61,59
3.61,60
3.61,62
3.61,62
3.62,65
3.62,68
3.62,69
3.62,70
3.62,70
3.62,70
3.63,70
3.63,70
3.63,70
3.63,69
3.63,67
3.63,66
3.64,64
3.64,62
3.64,61
3.64,60
3.64,58
3.64,57
3.64,56
3.65,55
3.65,54
3.65,52
3.65,51
3.65,51
3.65,54
3.66,63
3.66,69
3.66,70
3.66,69
3.66,77
3.66,91
3.66,99
3.67,102
3.67,103
3.67,100
3.67,98
3.67,102
3.67,107
3.68,110
3.68,111
3.68,109
3.68,107
3.68,105
3.68,102
3.69,99
3.69,97
3.69,98
3.69,98
3.69,97
3.69,96
3.69,93
3.7,91
3.7,88
3.7,86
3.7,84
3.7,81
3.7,82
3.71,85
3.71,87
3.71,86
3.71,84
3.71,82
3.71,82
3.72,80
3.72,78
3.72,77
3.72,75
3.72,73
3.72,73
3.72,73
3.73,71
3.73,69
3.73,69
3.73,68
3.73,67
3.73,67
3.73,68
3.74,66
3.74,65
3.74,64
3.74,64
3.74,63
3.74,62
3.75,61
3.75,62
3.75,61
3.75,61
3.75,60
3.75,58
3.76,58
3.76,58
3.76,56
3.76,55
3.76,54
3.76,53
3.76,52
3.77,51
3.77,51
3.77,50
3.77,48
3.77,49
3.77,49
3.78,49
3.78,50
3.78,50
3.78,50
3.78,50
3.78,50
3.78,49
3.79,48
3.79,48
3.79,48
3.79,46
3.79,46
3.79,45
3.79,45
3.8,45
3.8,45
3.8,47
3.8,49
3.8,50
3.8,50
3.81,49
3.81,49
3.81,51
3.81,52
3.81,52
3.81,51
3.82,50
3.82,49
3.82,49
3.82,48
3.82,49
3.82,50
3.82,51
3.83,51
3.83,51
3.83,51
3.83,49
3.83,48
3.83,48
3.84,48
3.84,47
3.84,46
3.84,45
3.84,45
3.84,44
3.85,42
3.85,42
3.85,41
3.85,40
3.85,41
3.85,42
3.85,41
3.86,39
3.86,39
3.86,38
3.86,37
3.86,38
3.86,40
3.86,40
3.87,41
3.87,42
3.87,41
3.87,40
3.87,42
3.87,42
3.88,41
3.88,40
3.88,40
3.88,40
3.88,39
3.88,38
3.89,37
3.89,37
3.89,36
3.89,36
3.89,39
3.89,44
3.89,49
3.9,55
3.9,62
3.9,67
3.9,74
3.9,80
3.9,85
3.91,87
3.91,88
3.91,89
3.91,89
3.91,90
3.91,91
3.91,92
3.92,92
3.92,93
3.92,94
3.92,94
3.92,93
3.92,90
3.92,89
3.93,88
3.93,90
3.93,92
3.93,92
3.93,91
3.93,91
3.94,89
3.94,86
3.94,84
3.94,82
3.94,83
3.94,82
3.95,84
3.95,86
3.95,87
3.95,88
3.95,90
3.95,89
3.95,87
3.96,85
3.96,83
3.96,80
3.96,78
3.96,79
3.96,81
3.97,81
3.97,81
3.97,81
3.97,80
3.97,78
3.97,76
3.98,74
3.98,72
3.98,70
3.98,68
3.98,67
3.98,65
3.98,64
3.98,62
3.99,61
3.99,60
3.99,59
3.99,57
3.99,57
3.99,57
4.0,59
4.0,59
4.0,60
4.0,61
4.0,60
4.0,58
4.01,57
4.01,56
4.01,55
4.01,55
4.01,57
4.01,59
4.01,59
4.02,59
4.02,61
4.02,61
4.02,59
4.02,58
4.02,57
4.03,55
4.03,54
4.03,53
4.03,54
4.03,52
4.03,52
4.03,52
4.04,51
4.04,50
4.04,52
4.04,52
4.04,52
4.04,51
4.05,50
4.05,49
4.05,49
4.05,48
4.05,47
4.05,48
4.05,48
4.06,48
4.06,49
4.06,50
4.06,51
4.06,52
4.06,52
4.07,51
4.07,51
4.07,51
4.07,50
4.07,50
4.07,51
4.07,52
4.08,53
4.08,52
4.08,52
4.08,52
4.08,53
4.08,54
4.09,55
4.09,54
4.09,52
4.09,51
4.09,50
4.09,49
4.09,48
4.1,50
4.1,50
4.1,50
4.1,51
4.1,50
4.1,49
4.11,48
4.11,48
4.11,47
4.11,46
4.11,45
4.11,46
4.11,45
4.12,44
4.12,43
4.12,42
4.12,41
4.12,41
4.12,40
4.13,39
4.13,39
4.13,38
4.13,39
4.13,38
4.13,39
4.13,41
4.14,41
4.14,40
4.14,39
4.14,39
4.14,38
4.14,38
4.15,39
4.15,39
4.15,39
4.15,41
4.15,42
4.15,42
4.16,41
4.16,40
4.16,39
4.16,39
4.16,38
4.16,39
4.16,40
4.17,40
4.17,40
4.17,40
4.17,39
4.17,41
4.17,43
4.17,43
4.18,45
4.18,45
4.18,44
4.18,44
4.18,45
4.19,44
4.19,43
4.19,43
4.19,45
4.19,46
4.19,47
4.19,47
4.2,46
4.2,45
4.2,46
4.2,46
4.2,46
4.2,45
4.2,44
4.21,45
4.21,47
4.21,47
4.21,46
4.21,46
4.21,48
4.22,50
4.22,52
4.22,53
4.22,53
4.22,52
4.22,51
4.23,49
4.23,48
4.23,47
4.23,47
4.23,47
4.23,47
4.23,48
4.24,48
4.24,48
4.24,47
4.24,46
4.24,45
4.24,44
4.25,43
4.25,42
4.25,42
4.25,41
4.25,42
4.25,43
4.25,42
4.26,41
4.26,40
4.26,39
4.26,39
4.26,39
4.26,41
4.26,42
4.27,43
4.27,44
4.27,44
4.27,43
4.27,42
4.27,42
4.28,41
4.28,40
4.28,40
4.28,42
4.28,43
4.28,44
4.28,46
4.29,47
4.29,47
4.29,46
4.29,46
4.29,46
4.29,45
4.3,45
4.3,45
4.3,44
4.3,46
4.3,46
4.3,46
4.3,44
4.31,44
4.31,43
4.31,42
4.31,41
4.31,42
4.32,42
4.32,41
4.32,41
4.32,40
4.32,39
4.32,39
4.32,39
4.32,39
4.33,38
4.33,37
4.33,37
4.33,36
4.33,35
4.33,37
4.34,37
4.34,38
4.34,38
4.34,37
4.34,37
4.34,37
4.34,37
4.35,38
4.35,38
4.35,37
4.35,38
4.35,39
4.36,39
4.36,39
4.36,38
4.36,37
4.36,37
4.36,38
4.36,39
4.36,38
4.37,38
4.37,39
4.37,38
4.37,37
4.37,39
4.37,40
4.38,40
4.38,40
4.38,42
4.38,46
4.38,47
4.38,49
4.39,50
4.39,50
4.39,49
4.39,48
4.39,47
4.39,46
4.4,45
4.4,46
4.4,45
4.4,44
4.4,45
4.4,45
4.4,45
4.41,44
4.41,42
4.41,42
4.41,41
4.41,42
4.41,44
4.42,45
4.42,45
4.42,46
4.42,46
4.42,45
4.42,44
4.42,43
4.43,42
4.43,43
4.43,44
4.43,45
4.43,45
4.43,45
4.43,46
4.44,46
4.44,45
4.44,44
4.44,44
4.44,42
4.44,41
4.45,41
4.45,42
4.45,41
4.45,43
4.45,43
4.45,42
4.46,41
4.46,41
4.46,41
4.46,40
4.46,40
4.46,41
4.46,41
4.47,40
4.47,40
4.47,40
4.47,39
4.47,38
4.47,38
4.48,37
4.48,36
4.48,36
4.48,38
4.48,40
4.48,40
4.49,42
4.49,43
4.49,42
4.49,41
4.49,42
4.49,41
4.49,41
4.5,40
4.5,42
4.5,44
4.5,45
4.5,47
4.5,46
4.5,46
4.51,47
4.51,47
4.51,46
4.51,45
4.51,47
4.51,49
4.51,50
4.52,51
4.52,51
4.52,51
4.52,50
4.52,49
4.53,48
4.53,47
4.53,46
4.53,48
4.53,48
4.53,48
4.53,47
4.54,47
4.54,47
4.54,46
4.54,45
4.54,44
4.54,44
4.55,44
4.55,45
4.55,46
4.55,46
4.55,47
4.55,47
4.55,46
4.55,44
4.56,44
4.56,44
4.56,45
4.56,47
4.56,50
4.56,51
4.57,52
4.57,54
4.57,55
4.57,53
4.57,52
4.57,51
4.58,50
4.58,49
4.58,48
4.58,48
4.58,47
4.58,46
4.59,46
4.59,45
4.59,44
4.59,43
4.59,43
4.59,44
4.59,43
4.6,43
4.6,43
4.6,42
4.6,42
4.6,43
4.6,43
4.61,43
4.61,42
4.61,41
4.61,40
4.61,39
4.61,41
4.61,42
4.62,42
4.62,43
4.62,43
4.62,43
4.62,42
4.62,43
4.63,42
4.63,42
4.63,44
4.63,48
4.63,51
4.63,52
4.63,54
4.64,53
4.64,51
4.64,51
4.64,50
4.64,48
4.64,47
4.65,48
4.65,48
4.65,47
4.65,46
4.65,47
4.65,47
4.66,46
4.66,44
4.66,43
4.66,43
4.66,43
4.66,44
4.66,46
4.67,46
4.67,46
4.67,46
4.67,45
4.67,44
4.67,44
4.68,43
4.68,43
4.68,43
4.68,46
4.68,49
4.68,50
4.68,51
4.69,51
4.69,50
4.69,49
4.69,48
4.69,48
4.69,47
4.7,45
4.7,46
4.7,47
4.7,48
4.7,50
4.7,50
4.7,50
4.71,49
4.71,48
4.71,47
4.71,46
4.71,45
4.71,46
4.72,45
4.72,45
4.72,45
4.72,44
4.72,43
4.72,43
4.72,43
4.73,42
4.73,41
4.73,40
4.73,41
4.73,40
4.73,40
4.74,41
4.74,42
4.74,41
4.74,41
4.74,41
4.74,41
4.75,40
4.75,41
4.75,42
4.75,41
4.75,40
4.75,40
4.75,40
4.76,43
4.76,45
4.76,44
4.76,45
4.76,45
4.76,44
4.76,43
4.77,44
4.77,47
4.77,48
4.77,47
4.77,48
4.77,49
4.78,48
4.78,47
4.78,47
4.78,48
4.78,48
4.78,47
4.78,47
4.79,46
4.79,45
4.79,44
4.79,43
4.79,43
4.79,42
4.8,41
4.8,42
4.8,41
4.8,40
4.8,40
4.8,39
4.8,38
4.81,38
4.81,37
4.81,37
4.81,38
4.81,38
4.81,39
4.82,40
4.82,43
4.82,44
4.82,44
4.82,43
4.82,43
4.82,43
4.83,42
4.83,41
4.83,42
4.83,44
4.83,44
4.83,44
4.84,43
4.84,42
4.84,42
4.84,41
4.84,41
4.84,42
4.84,43
4.85,46
4.85,47
4.85,46
4.85,47
4.85,47
4.85,45
4.86,44
4.86,44
4.86,42
4.86,42
4.86,42
4.86,43
4.87,44
4.87,44
4.87,45
4.87,45
4.87,44
4.87,43
4.88,42
4.88,41
4.88,41
4.88,41
4.88,43
4.88,42
4.88,41
4.89,40
4.89,39
4.89,39
4.89,38
4.89,38
4.89,37
4.89,38
4.9,39
4.9,40
4.9,39
4.9,39
4.9,41
4.9,40
4.91,39
4.91,39
4.91,38
4.91,38
4.91,37
4.91,37
4.92,37
4.92,36
4.92,36
4.92,37
4.92,35
4.92,35
4.92,34
4.93,34
4.93,34
4.93,36
4.93,38
4.93,39
4.93,39
4.94,41
4.94,41
4.94,40
4.94,39
4.94,39
4.94,38
4.94,38
4.95,38
4.95,39
4.95,40
4.95,41
4.95,43
4.95,43
4.96,42
4.96,42
4.96,42
4.96,40
4.96,40
4.96,39
4.96,39
4.97,38
4.97,39
4.97,41
4.97,42
4.97,41
4.97,40
4.98,39
4.98,39
4.98,38
4.98,38
4.98,39
4.98,38
4.98,38
4.99,38
4.99,38
4.99,37
4.99,36
4.99,36
4.99,35
5.0,34
5.0,35
5.0,36
5.0,36
5.0,36
5.0,35
5.01,35
5.01,34
5.01,35
5.01,34
5.01,34
5.01,34
5.01,35
5.01,35
5.02,34
5.02,33
5.02,33
5.02,32
5.02,32
5.02,33
5.03,32
5.03,32
5.03,33
5.03,37
5.03,40
5.03,42
5.04,45
5.04,45
5.04,44
5.04,44
5.04,43
5.04,42
5.05,41
5.05,41
5.05,41
5.05,40
5.05,39
5.05,40
5.05,39
5.05,38
5.06,38
5.06,38
5.06,38
5.06,38
5.06,37
5.06,37
5.07,36
5.07,36
5.07,36
5.07,35
5.07,34
5.07,35
5.07,35
5.08,35
5.08,34
5.08,35
5.08,36
5.08,37
5.09,40
5.09,41
5.09,41
5.09,40
5.09,40
5.09,39
5.09,39
5.09,39
5.1,37
5.1,37
5.1,38
5.1,39
5.1,43
5.1,46
5.11,45
5.11,45
5.11,45
5.11,44
5.11,45
5.11,46
5.11,45
5.12,45
5.12,44
5.12,43
5.12,43
5.12,42
5.13,43
5.13,46
5.13,50
5.13,53
5.13,54
5.13,54
5.13,54
5.14,55
5.14,53
5.14,52
5.14,53
5.14,53
5.14,52
5.15,51
5.15,49
5.15,49
5.15,48
5.15,48
5.15,48
5.15,47
5.16,46
5.16,47
5.16,47
5.16,46
5.16,46
5.16,45
5.17,44
5.17,43
5.17,43
5.17,42
5.17,41
5.17,41
5.17,40
5.18,40
5.18,39
5.18,39
5.18,42
5.18,42
5.18,43
5.19,45
5.19,46
5.19,46
5.19,45
5.19,44
5.19,43
5.19,42
5.2,41
5.2,42
5.2,41
5.2,40
5.2,40
5.2,39
5.21,38
5.21,37
5.21,38
5.21,38
5.21,38
5.21,37
5.22,36
5.22,35
5.22,36
5.22,37
5.22,37
5.22,37
5.22,36
5.23,36
5.23,37
5.23,37
5.23,38
5.23,38
5.23,38
5.23,38
5.24,38
5.24,38
5.24,41
5.24,42
5.24,42
5.24,45
5.25,47
5.25,49
5.25,50
5.25,49
5.25,48
5.25,47
5.26,46
5.26,45
5.26,44
5.26,43
5.26,42
5.26,42
5.26,43
5.27,44
5.27,44
5.27,46
5.27,45
5.27,45
5.27,47
5.28,49
5.28,48
5.28,48
5.28,50
5.28,52
5.28,53
5.28,53
5.28,55
5.29,54
5.29,53
5.29,52
5.29,51
5.29,50
5.3,49
5.3,49
5.3,49
5.3,48
5.3,47
5.3,46
5.3,45
5.31,44
5.31,44
5.31,43
5.31,43
5.31,42
5.31,42
5.32,42
5.32,41
5.32,41
5.32,41
5.32,40
5.32,41
5.32,42
5.33,41
5.33,41
5.33,44
5.33,47
5.33,49
5.33,48
5.34,49
5.34,49
5.34,48
5.34,47
5.34,47
5.34,47
5.34,46
5.35,45
5.35,44
5.35,43
5.35,42
5.35,42
5.35,42
5.36,41
5.36,42
5.36,42
5.36,41
5.36,41
5.36,41
5.36,42
5.37,41
5.37,41
5.37,41
5.37,40
5.37,39
5.37,39
5.38,38
5.38,38
5.38,37
5.38,36
5.38,36
5.38,36
5.39,37
5.39,39
5.39,39
5.39,38
5.39,38
5.39,38
5.39,37
5.4,36
5.4,37
5.4,37
5.4,36
5.4,36
5.4,35
5.41,35
5.41,36
5.41,36
5.41,37
5.41,36
5.41,36
5.41,35
5.42,34
5.42,34
5.42,34
5.42,34
5.42,33
5.42,36
5.43,38
5.43,37
5.43,37
5.43,37
5.43,40
5.43,41
5.43,43
5.44,45
5.44,45
5.44,45
5.44,43
5.44,43
5.44,42
5.45,42
5.45,43
5.45,44
