Time_s,ADC
0.0,24
0.0,23
0.0,23
0.0,23
0.01,23
0.01,23
0.01,23
0.01,22
0.01,22
0.01,22
0.01,22
0.02,22
0.02,22
0.02,22
0.02,21
0.02,21
0.02,21
0.03,21
0.03,22
0.03,21
0.03,22
0.03,22
0.03,22
0.03,21
0.04,22
0.04,23
0.04,24
0.04,24
0.04,24
0.04,23
0.05,23
0.05,24
0.05,25
0.05,25
0.05,24
0.05,25
0.05,24
0.06,25
0.06,24
0.06,24
0.06,24
0.06,24
0.06,23
0.07,23
0.07,23
0.07,23
0.07,23
0.07,23
0.07,22
0.07,22
0.08,22
0.08,22
0.08,21
0.08,22
0.08,22
0.08,21
0.09,21
0.09,21
0.09,22
0.09,22
0.09,22
0.09,22
0.1,22
0.1,22
0.1,22
0.1,22
0.1,22
0.1,22
0.1,22
0.11,23
0.11,23
0.11,23
0.11,23
0.11,22
0.11,23
0.11,24
0.12,25
0.12,26
0.12,25
0.12,26
0.12,26
0.12,26
0.12,26
0.13,26
0.13,25
0.13,25
0.13,26
0.13,26
0.13,26
0.14,25
0.14,25
0.14,25
0.14,24
0.14,24
0.14,24
0.14,24
0.15,24
0.15,24
0.15,23
0.15,23
0.15,23
0.15,23
0.16,23
0.16,23
0.16,23
0.16,22
0.16,22
0.16,23
0.17,23
0.17,23
0.17,22
0.17,23
0.17,23
0.17,24
0.17,23
0.18,23
0.18,23
0.18,22
0.18,23
0.18,23
0.18,23
0.19,23
0.19,24
0.19,24
0.19,24
0.19,24
0.19,24
0.19,24
0.2,24
0.2,24
0.2,24
0.2,24
0.2,24
0.2,24
0.2,24
0.21,24
0.21,23
0.21,24
0.21,23
0.21,24
0.22,25
0.22,25
0.22,25
0.22,24
0.22,24
0.22,25
0.22,25
0.22,25
0.23,25
0.23,24
0.23,25
0.23,25
0.23,24
0.23,24
0.24,24
0.24,24
0.24,24
0.24,23
0.24,23
0.24,23
0.25,23
0.25,23
0.25,23
0.25,23
0.25,23
0.25,23
0.25,23
0.26,23
0.26,23
0.26,23
0.26,23
0.26,23
0.26,24
0.26,24
0.27,24
0.27,24
0.27,23
0.27,24
0.27,24
0.27,24
0.28,24
0.28,23
0.28,23
0.28,24
0.28,25
0.28,25
0.28,24
0.29,24
0.29,24
0.29,24
0.29,24
0.29,24
0.29,24
0.3,23
0.3,24
0.3,24
0.3,23
0.3,24
0.3,24
0.31,23
0.31,23
0.31,23
0.31,23
0.31,22
0.31,22
0.31,23
0.32,23
0.32,23
0.32,23
0.32,23
0.32,23
0.32,23
0.32,23
0.33,22
0.33,22
0.33,23
0.33,23
0.33,24
0.33,23
0.34,23
0.34,23
0.34,23
0.34,24
0.34,23
0.34,23
0.35,22
0.35,23
0.35,23
0.35,23
0.35,22
0.35,22
0.35,22
0.36,23
0.36,23
0.36,23
0.36,22
0.36,22
0.36,24
0.37,24
0.37,24
0.37,23
0.37,23
0.37,23
0.37,23
0.37,23
0.38,23
0.38,23
0.38,23
0.38,23
0.38,23
0.38,23
0.39,23
0.39,23
0.39,22
0.39,22
0.39,22
0.39,21
0.4,21
0.4,22
0.4,22
0.4,22
0.4,22
0.4,22
0.4,21
0.41,22
0.41,22
0.41,22
0.41,22
0.41,22
0.41,22
0.41,22
0.42,22
0.42,22
0.42,22
0.42,22
0.42,22
0.42,22
0.43,22
0.43,21
0.43,21
0.43,22
0.43,23
0.43,23
0.44,23
0.44,23
0.44,23
0.44,23
0.44,24
0.44,23
0.44,23
0.45,22
0.45,23
0.45,23
0.45,24
0.45,23
0.45,24
0.45,24
0.46,24
0.46,23
0.46,23
0.46,23
0.46,23
0.46,23
0.46,23
0.47,23
0.47,22
0.47,22
0.47,22
0.47,22
0.47,22
0.48,22
0.48,22
0.48,22
0.48,21
0.48,21
0.48,21
0.49,21
0.49,20
0.49,20
0.49,20
0.49,20
0.49,20
0.5,20
0.5,20
0.5,21
0.5,21
0.5,20
0.5,21
0.5,21
0.5,21
0.51,21
0.51,21
0.51,21
0.51,21
0.51,21
0.52,21
0.52,21
0.52,21
0.52,21
0.52,21
0.52,22
0.52,21
0.53,21
0.53,21
0.53,21
0.53,21
0.53,21
0.53,21
0.54,20
0.54,21
0.54,20
0.54,20
0.54,20
0.54,20
0.54,20
0.55,19
0.55,20
0.55,20
0.55,20
0.55,20
0.55,21
0.56,21
0.56,22
0.56,22
0.56,22
0.56,21
0.56,21
0.56,23
0.57,25
0.57,24
0.57,24
0.57,24
0.57,23
0.57,23
0.57,23
0.58,23
0.58,23
0.58,23
0.58,23
0.58,22
0.58,22
0.59,22
0.59,22
0.59,22
0.59,22
0.59,22
0.59,22
0.6,21
0.6,22
0.6,21
0.6,21
0.6,21
0.6,21
0.61,21
0.61,20
0.61,21
0.61,20
0.61,20
0.61,20
0.61,20
0.61,20
0.62,20
0.62,20
0.62,20
0.62,20
0.62,20
0.62,20
0.63,20
0.63,20
0.63,20
0.63,21
0.63,21
0.63,21
0.63,21
0.64,21
0.64,22
0.64,22
0.64,23
0.64,22
0.65,22
0.65,22
0.65,23
0.65,23
0.65,23
0.65,23
0.65,23
0.66,22
0.66,23
0.66,22
0.66,22
0.66,22
0.66,22
0.67,23
0.67,23
0.67,23
0.67,23
0.67,23
0.67,23
0.67,23
0.68,23
0.68,23
0.68,23
0.68,23
0.68,23
0.68,23
0.69,23
0.69,24
0.69,23
0.69,23
0.69,23
0.69,23
0.69,23
0.7,23
0.7,24
0.7,24
0.7,24
0.7,24
0.7,24
0.7,25
0.71,25
0.71,25
0.71,25
0.71,25
0.71,24
0.71,24
0.71,25
0.72,25
0.72,24
0.72,25
0.72,24
0.72,25
0.72,24
0.73,24
0.73,24
0.73,24
0.73,24
0.73,25
0.74,24
0.74,24
0.74,25
0.74,24
0.74,24
0.74,24
0.74,24
0.75,24
0.75,24
0.75,24
0.75,24
0.75,24
0.75,24
0.75,25
0.76,25
0.76,24
0.76,24
0.76,24
0.76,24
0.76,23
0.76,24
0.77,24
0.77,24
0.77,24
0.77,23
0.77,23
0.77,23
0.78,22
0.78,22
0.78,22
0.78,22
0.78,22
0.78,22
0.79,21
0.79,22
0.79,22
0.79,22
0.79,22
0.79,22
0.79,22
0.8,22
0.8,23
0.8,23
0.8,22
0.8,22
0.8,22
0.81,22
0.81,23
0.81,23
0.81,23
0.81,23
0.81,22
0.81,23
0.82,23
0.82,24
0.82,23
0.82,23
0.82,23
0.82,22
0.83,22
0.83,22
0.83,22
0.83,21
0.83,22
0.83,22
0.83,22
0.84,22
0.84,22
0.84,22
0.84,22
0.84,22
0.84,22
0.85,22
0.85,22
0.85,22
0.85,22
0.85,21
0.85,21
0.86,21
0.86,21
0.86,21
0.86,21
0.86,21
0.86,20
0.86,20
0.86,21
0.87,21
0.87,20
0.87,20
0.87,20
0.87,21
0.88,21
0.88,21
0.88,21
0.88,21
0.88,21
0.88,22
0.88,22
0.88,22
0.89,22
0.89,23
0.89,23
0.89,23
0.89,23
0.89,22
0.9,22
0.9,22
0.9,22
0.9,22
0.9,21
0.9,22
0.91,21
0.91,22
0.91,22
0.91,22
0.91,21
0.91,21
0.91,23
0.92,23
0.92,23
0.92,23
0.92,23
0.92,23
0.92,23
0.93,23
0.93,23
0.93,23
0.93,22
0.93,22
0.93,23
0.93,23
0.94,22
0.94,22
0.94,22
0.94,22
0.94,22
0.94,21
0.95,21
0.95,21
0.95,22
0.95,23
0.95,22
0.95,22
0.95,22
0.96,22
0.96,23
0.96,23
0.96,22
0.96,22
0.96,23
0.96,24
0.97,24
0.97,24
0.97,24
0.97,23
0.97,23
0.97,23
0.98,23
0.98,22
0.98,22
0.98,22
0.98,22
0.98,22
0.99,21
0.99,21
0.99,21
0.99,22
0.99,22
0.99,21
1.0,21
1.0,21
1.0,21
1.0,21
1.0,21
1.0,21
1.0,22
1.01,22
1.01,22
1.01,22
1.01,21
1.01,21
1.01,21
1.01,21
1.02,21
1.02,21
1.02,21
1.02,22
1.02,22
1.02,22
1.03,22
1.03,22
1.03,21
1.03,22
1.03,22
1.03,22
1.03,22
1.04,22
1.04,22
1.04,22
1.04,21
1.04,22
1.04,21
1.05,21
1.05,21
1.05,22
1.05,22
1.05,21
1.05,21
1.05,21
1.06,21
1.06,21
1.06,21
1.06,21
1.06,21
1.06,21
1.07,22
1.07,22
1.07,21
1.07,22
1.07,22
1.07,22
1.08,22
1.08,22
1.08,22
1.08,21
1.08,22
1.08,23
1.08,23
1.09,23
1.09,23
1.09,23
1.09,23
1.09,23
1.09,23
1.1,23
1.1,23
1.1,24
1.1,25
1.1,26
1.1,26
1.1,25
1.11,25
1.11,25
1.11,24
1.11,24
1.11,24
1.11,23
1.12,24
1.12,23
1.12,23
1.12,23
1.12,23
1.12,23
1.12,23
1.13,22
1.13,22
1.13,22
1.13,22
1.13,22
1.13,22
1.13,22
1.14,23
1.14,24
1.14,23
1.14,23
1.14,24
1.14,24
1.15,24
1.15,26
1.15,26
1.15,26
1.15,26
1.15,27
1.16,27
1.16,26
1.16,26
1.16,27
1.16,28
1.16,27
1.16,27
1.17,27
1.17,27
1.17,28
1.17,30
1.17,32
1.17,33
1.18,33
1.18,35
1.18,35
1.18,37
1.18,40
1.18,40
1.18,39
1.19,38
1.19,39
1.19,38
1.19,38
1.19,37
1.2,37
1.2,37
1.2,36
1.2,36
1.2,36
1.2,35
1.2,35
1.21,34
1.21,34
1.21,33
1.21,33
1.21,32
1.21,32
1.21,31
1.22,31
1.22,30
1.22,30
1.22,31
1.22,31
1.22,30
1.23,29
1.23,30
1.23,29
1.23,29
1.23,29
1.23,28
1.23,28
1.24,27
1.24,27
1.24,28
1.24,28
1.24,28
1.24,28
1.25,27
1.25,27
1.25,27
1.25,27
1.25,27
1.25,27
1.25,26
1.26,26
1.26,26
1.26,26
1.26,25
1.26,25
1.26,25
1.26,25
1.27,25
1.27,25
1.27,25
1.27,25
1.27,25
1.27,26
1.28,25
1.28,25
1.28,25
1.28,26
1.28,26
1.28,27
1.29,26
1.29,26
1.29,26
1.29,26
1.29,26
1.29,26
1.29,26
1.3,25
1.3,25
1.3,25
1.3,25
1.3,25
1.3,25
1.31,25
1.31,26
1.31,26
1.31,25
1.31,25
1.31,24
1.32,24
1.32,24
1.32,24
1.32,23
1.32,23
1.32,23
1.33,22
1.33,22
1.33,22
1.33,22
1.33,21
1.33,22
1.33,22
1.34,22
1.34,22
1.34,22
1.34,22
1.34,23
1.34,22
1.34,22
1.35,22
1.35,22
1.35,22
1.35,23
1.35,22
1.35,22
1.36,22
1.36,23
1.36,23
1.36,23
1.36,23
1.36,23
1.36,23
1.37,24
1.37,23
1.37,23
1.37,23
1.37,24
1.37,23
1.38,23
1.38,23
1.38,23
1.38,23
1.38,24
1.38,27
1.38,29
1.39,31
1.39,31
1.39,33
1.39,35
1.39,38
1.39,39
1.39,39
1.4,38
1.4,39
1.4,39
1.4,39
1.4,43
1.4,44
1.41,44
1.41,43
1.41,42
1.41,43
1.41,44
1.41,46
1.42,46
1.42,45
1.42,44
1.42,43
1.42,42
1.42,41
1.42,40
1.43,40
1.43,39
1.43,38
1.43,38
1.43,38
1.43,37
1.44,36
1.44,35
1.44,35
1.44,36
1.44,36
1.44,35
1.45,35
1.45,34
1.45,34
1.45,34
1.45,34
1.45,34
1.46,33
1.46,32
1.46,32
1.46,32
1.46,31
1.46,31
1.46,30
1.47,30
1.47,29
1.47,28
1.47,28
1.47,28
1.47,28
1.47,27
1.48,27
1.48,26
1.48,26
1.48,26
1.48,26
1.48,26
1.49,25
1.49,25
1.49,26
1.49,27
1.49,26
1.49,26
1.5,26
1.5,27
1.5,27
1.5,28
1.5,29
1.5,29
1.5,30
1.5,32
1.51,33
1.51,32
1.51,33
1.51,34
1.51,33
1.51,33
1.52,33
1.52,34
1.52,33
1.52,32
1.52,32
1.52,31
1.52,32
1.53,31
1.53,32
1.53,32
1.53,31
1.53,31
1.53,31
1.54,30
1.54,29
1.54,29
1.54,28
1.54,28
1.54,28
1.55,27
1.55,27
1.55,28
1.55,28
1.55,27
1.55,27
1.55,28
1.56,29
1.56,29
1.56,29
1.56,28
1.56,28
1.56,28
1.57,29
1.57,29
1.57,28
1.57,28
1.57,28
1.57,28
1.57,27
1.58,27
1.58,27
1.58,26
1.58,26
1.58,26
1.59,26
1.59,25
1.59,26
1.59,25
1.59,25
1.59,25
1.59,25
1.6,25
1.6,25
1.6,27
1.6,27
1.6,26
1.6,27
1.6,28
1.61,28
1.61,28
1.61,28
1.61,28
1.61,28
1.61,27
1.61,27
1.62,28
1.62,28
1.62,27
1.62,27
1.62,28
1.63,29
1.63,29
1.63,29
1.63,28
1.63,29
1.63,30
1.63,30
1.63,30
1.64,29
1.64,29
1.64,28
1.64,28
1.64,28
1.65,28
1.65,28
1.65,28
1.65,29
1.65,29
1.65,28
1.65,28
1.65,28
1.66,30
1.66,30
1.66,29
1.66,29
1.66,28
1.66,29
1.67,29
1.67,28
1.67,28
1.67,27
1.67,27
1.67,27
1.68,27
1.68,26
1.68,26
1.68,26
1.68,26
1.68,26
1.68,26
1.69,25
1.69,25
1.69,25
1.69,25
1.69,25
1.69,24
1.7,24
1.7,24
1.7,23
1.7,23
1.7,23
1.7,23
1.7,23
1.71,22
1.71,22
1.71,22
1.71,22
1.71,22
1.72,22
1.72,23
1.72,24
1.72,24
1.72,24
1.72,25
1.72,25
1.73,25
1.73,25
1.73,24
1.73,25
1.73,24
1.73,24
1.73,24
1.74,25
1.74,29
1.74,32
1.74,34
1.74,34
1.74,34
1.75,35
1.75,37
1.75,40
1.75,41
1.75,41
1.75,40
1.75,40
1.76,40
1.76,41
1.76,41
1.76,40
1.76,39
1.76,40
1.76,41
1.77,41
1.77,41
1.77,40
1.77,39
1.77,38
1.77,38
1.78,38
1.78,37
1.78,36
1.78,35
1.78,35
1.78,34
1.78,34
1.79,35
1.79,34
1.79,34
1.79,34
1.79,34
1.79,34
1.8,33
1.8,34
1.8,34
1.8,33
1.8,32
1.8,32
1.81,33
1.81,34
1.81,33
1.81,33
1.81,32
1.81,32
1.82,32
1.82,32
1.82,33
1.82,32
1.82,32
1.82,32
1.82,32
1.83,31
1.83,30
1.83,30
1.83,30
1.83,29
1.83,28
1.84,29
1.84,28
1.84,28
1.84,27
1.84,27
1.84,27
1.84,27
1.85,27
1.85,26
1.85,26
1.85,26
1.85,25
1.85,25
1.86,25
1.86,25
1.86,24
1.86,24
1.86,24
1.86,23
1.86,23
1.87,23
1.87,23
1.87,23
1.87,22
1.87,22
1.87,22
1.88,22
1.88,22
1.88,21
1.88,22
1.88,22
1.88,22
1.88,22
1.89,22
1.89,22
1.89,22
1.89,22
1.89,22
1.89,22
1.9,23
1.9,23
1.9,25
1.9,25
1.9,24
1.9,24
1.9,24
1.91,24
1.91,24
1.91,24
1.91,23
1.91,23
1.91,23
1.91,23
1.92,23
1.92,23
1.92,23
1.92,23
1.92,23
1.92,23
1.93,23
1.93,23
1.93,22
1.93,22
1.93,23
1.93,23
1.94,23
1.94,23
1.94,24
1.94,24
1.94,24
1.94,24
1.95,24
1.95,24
1.95,24
1.95,24
1.95,24
1.95,24
1.95,24
1.96,24
1.96,23
1.96,24
1.96,23
1.96,23
1.96,22
1.97,23
1.97,23
1.97,22
1.97,22
1.97,22
1.97,22
1.97,23
1.98,22
1.98,22
1.98,22
1.98,21
1.98,21
1.98,21
1.98,21
1.99,22
1.99,22
1.99,21
1.99,22
1.99,21
1.99,21
2.0,21
2.0,21
2.0,22
2.0,22
2.0,22
2.0,23
2.01,23
2.01,23
2.01,22
2.01,22
2.01,22
2.01,22
2.02,22
2.02,22
2.02,22
2.02,22
2.02,22
2.02,23
2.02,24
2.03,24
2.03,24
2.03,24
2.03,24
2.03,24
2.03,25
2.03,26
2.04,25
2.04,25
2.04,25
2.04,25
2.04,26
2.04,26
2.05,25
2.05,26
2.05,25
2.05,25
2.05,25
2.05,24
2.06,24
2.06,24
2.06,24
2.06,23
2.06,23
2.06,23
2.06,22
2.07,23
2.07,23
2.07,22
2.07,22
2.07,22
2.07,22
2.07,22
2.08,22
2.08,21
2.08,21
2.08,21
2.08,21
2.08,21
2.09,21
2.09,21
2.09,21
2.09,21
2.09,21
2.09,22
2.1,22
2.1,21
2.1,21
2.1,23
2.1,22
2.1,22
2.1,22
2.11,24
2.11,24
2.11,24
2.11,24
2.11,24
2.11,24
2.12,23
2.12,24
2.12,23
2.12,23
2.12,22
2.12,23
2.12,22
2.13,22
2.13,22
2.13,22
2.13,21
2.13,21
2.13,21
2.14,22
2.14,22
2.14,22
2.14,21
2.14,21
2.14,21
2.14,21
2.15,22
2.15,21
2.15,21
2.15,21
2.15,21
2.15,21
2.16,22
2.16,23
2.16,23
2.16,22
2.16,23
2.16,23
2.16,22
2.17,23
2.17,23
2.17,22
2.17,22
2.17,22
2.17,22
2.17,22
2.18,22
2.18,22
2.18,21
2.18,21
2.18,22
2.19,22
2.19,22
2.19,22
2.19,22
2.19,23
2.19,23
2.19,23
2.2,24
2.2,24
2.2,25
2.2,25
2.2,25
2.2,25
2.2,26
2.21,26
2.21,26
2.21,26
2.21,26
2.21,25
2.21,25
2.22,25
2.22,26
2.22,27
2.22,27
2.22,27
2.22,27
2.23,29
2.23,30
2.23,29
2.23,29
2.23,28
2.23,29
2.23,29
2.24,29
2.24,29
2.24,28
2.24,28
2.24,28
2.24,27
2.24,27
2.25,27
2.25,27
2.25,28
2.25,28
2.25,27
2.25,27
2.26,28
2.26,28
2.26,28
2.26,27
2.26,27
2.26,26
2.27,26
2.27,25
2.27,25
2.27,26
2.27,25
2.27,25
2.27,25
2.28,25
2.28,25
2.28,25
2.28,24
2.28,24
2.28,24
2.29,24
2.29,24
2.29,23
2.29,23
2.29,23
2.29,23
2.29,23
2.3,23
2.3,22
2.3,22
2.3,22
2.3,21
2.3,22
2.31,21
2.31,21
2.31,21
2.31,21
2.31,21
2.31,20
2.32,20
2.32,22
2.32,22
2.32,22
2.32,22
2.32,23
2.32,24
2.33,25
2.33,25
2.33,25
2.33,24
2.33,24
2.33,25
2.33,25
2.34,24
2.34,24
2.34,24
2.34,24
2.34,24
2.34,24
2.35,25
2.35,27
2.35,27
2.35,27
2.35,26
2.35,27
2.36,26
2.36,26
2.36,26
2.36,26
2.36,25
2.36,25
2.36,25
2.37,25
2.37,25
2.37,25
2.37,25
2.37,27
2.37,28
2.38,28
2.38,28
2.38,28
2.38,28
2.38,28
2.38,27
2.38,27
2.39,27
2.39,26
2.39,26
2.39,28
2.39,28
2.39,28
2.4,28
2.4,27
2.4,27
2.4,29
2.4,35
2.4,41
2.4,42
2.41,42
2.41,47
2.41,53
2.41,55
2.41,54
2.41,53
2.42,52
2.42,51
2.42,50
2.42,49
2.42,48
2.42,47
2.42,48
2.43,49
2.43,49
2.43,48
2.43,47
2.43,46
2.43,45
2.44,44
2.44,43
2.44,42
2.44,43
2.44,44
2.44,43
2.45,43
2.45,42
2.45,41
2.45,40
2.45,39
2.45,38
2.45,38
2.46,37
2.46,38
2.46,38
2.46,38
2.46,38
2.46,39
2.46,40
2.47,39
2.47,38
2.47,38
2.47,37
2.47,37
2.47,36
2.48,37
2.48,36
2.48,36
2.48,35
2.48,34
2.48,33
2.49,33
2.49,32
2.49,32
2.49,33
2.49,33
2.49,32
2.49,32
2.5,31
2.5,31
2.5,30
2.5,30
2.5,30
2.5,29
2.51,29
2.51,29
2.51,33
2.51,35
2.51,34
2.51,34
2.51,33
2.52,33
2.52,32
2.52,32
2.52,31
2.52,30
2.52,31
2.53,32
2.53,31
2.53,32
2.53,36
2.53,38
2.53,37
2.53,37
2.54,35
2.54,35
2.54,36
2.54,36
2.54,36
2.54,36
2.55,35
2.55,36
2.55,36
2.55,39
2.55,40
2.55,41
2.55,40
2.56,42
2.56,43
2.56,44
2.56,44
2.56,43
2.56,42
2.57,40
2.57,40
2.57,39
2.57,40
2.57,43
2.57,42
2.58,41
2.58,40
2.58,40
2.58,40
2.58,39
2.58,38
2.58,38
2.59,37
2.59,37
2.59,37
2.59,36
2.59,37
2.59,37
2.59,36
2.6,35
2.6,35
2.6,35
2.6,36
2.6,35
2.6,37
2.61,37
2.61,38
2.61,39
2.61,38
2.61,37
2.61,37
2.62,36
2.62,36
2.62,36
2.62,36
2.62,35
2.62,36
2.62,37
2.63,36
2.63,37
2.63,38
2.63,37
2.63,38
2.63,41
2.64,42
2.64,43
2.64,42
2.64,41
2.64,40
2.64,40
2.64,39
2.65,39
2.65,38
2.65,39
2.65,39
2.65,38
2.65,38
2.66,37
2.66,36
2.66,38
2.66,41
2.66,41
2.66,40
2.66,39
2.67,38
2.67,37
2.67,37
2.67,36
2.67,35
2.67,35
2.68,36
2.68,36
2.68,36
2.68,35
2.68,35
2.68,34
2.68,34
2.69,33
2.69,32
2.69,32
2.69,32
2.69,33
2.69,34
2.7,33
2.7,33
2.7,33
2.7,35
2.7,37
2.7,37
2.71,40
2.71,46
2.71,47
2.71,46
2.71,45
2.71,44
2.71,44
2.72,43
2.72,42
2.72,42
2.72,40
2.72,39
2.72,39
2.72,38
2.73,38
2.73,37
2.73,37
2.73,38
2.73,37
2.73,37
2.74,36
2.74,35
2.74,35
2.74,34
2.74,35
2.74,35
2.75,34
2.75,33
2.75,33
2.75,35
2.75,38
2.75,40
2.75,39
2.76,39
2.76,45
2.76,51
2.76,51
2.76,50
2.76,49
2.77,48
2.77,47
2.77,46
2.77,46
2.77,45
2.77,44
2.78,43
2.78,42
2.78,41
2.78,41
2.78,41
2.78,44
2.78,45
2.79,44
2.79,43
2.79,42
2.79,42
2.79,42
2.79,41
2.79,40
2.8,39
2.8,39
2.8,37
2.8,37
2.8,36
2.8,36
2.81,36
2.81,38
2.81,38
2.81,37
2.81,37
2.81,36
2.81,35
2.82,36
2.82,35
2.82,34
2.82,35
2.82,36
2.82,36
2.83,38
2.83,39
2.83,41
2.83,42
2.83,46
2.83,46
2.84,45
2.84,44
2.84,44
2.84,44
2.84,44
2.84,44
2.84,44
2.85,43
2.85,42
2.85,45
2.85,45
2.85,45
2.85,47
2.85,49
2.86,49
2.86,49
2.86,50
2.86,51
2.86,50
2.86,50
2.87,51
2.87,50
2.87,49
2.87,48
2.87,49
2.87,49
2.88,49
2.88,50
2.88,50
2.88,57
2.88,66
2.88,71
2.88,72
2.89,72
2.89,74
2.89,72
2.89,72
2.89,84
2.89,114
2.9,158
2.9,205
2.9,226
2.9,238
2.9,269
2.9,312
2.91,350
2.91,372
2.91,378
2.91,371
2.91,377
2.91,406
2.91,417
2.92,408
2.92,417
2.92,437
2.92,453
2.92,461
2.92,454
2.93,448
2.93,440
2.93,425
2.93,411
2.93,403
2.93,394
2.94,383
2.94,372
2.94,373
2.94,374
2.94,373
2.94,363
2.95,355
2.95,348
2.95,336
2.95,329
2.95,333
2.95,334
2.95,339
2.96,361
2.96,375
2.96,369
2.96,371
2.96,387
2.96,395
2.97,388
2.97,379
2.97,367
2.97,367
2.97,385
2.97,399
2.98,396
2.98,396
2.98,412
2.98,426
2.98,423
2.98,411
2.98,397
2.99,383
2.99,370
2.99,358
2.99,347
2.99,352
2.99,362
3.0,357
3.0,349
3.0,343
3.0,334
3.0,322
3.0,311
3.01,302
3.01,294
3.01,293
3.01,288
3.01,279
3.01,272
3.02,265
3.02,266
3.02,272
3.02,280
3.02,288
3.02,286
3.02,290
3.03,294
3.03,298
3.03,297
3.03,292
3.03,287
3.03,281
3.04,273
3.04,267
3.04,258
3.04,252
3.04,247
3.04,240
3.05,233
3.05,226
3.05,218
3.05,212
3.05,210
3.05,213
3.06,209
3.06,204
3.06,197
3.06,191
3.06,185
3.06,182
3.06,203
3.07,223
3.07,225
3.07,234
3.07,258
3.07,266
3.07,262
3.08,253
3.08,251
3.08,247
3.08,247
3.08,247
3.08,244
3.09,239
3.09,235
3.09,229
3.09,228
3.09,226
3.09,221
3.09,220
3.1,219
3.1,218
3.1,214
3.1,207
3.1,202
3.1,196
3.11,191
3.11,185
3.11,178
3.11,173
3.11,167
3.11,167
3.12,164
3.12,158
3.12,156
3.12,162
3.12,162
3.12,164
3.13,160
3.13,156
3.13,153
3.13,152
3.13,160
3.13,164
3.14,163
3.14,166
3.14,170
3.14,168
3.14,168
3.14,169
3.14,164
3.15,162
3.15,159
3.15,155
3.15,155
3.15,151
3.15,149
3.16,152
3.16,153
3.16,153
3.16,152
3.16,149
3.16,144
3.17,141
3.17,137
3.17,138
3.17,139
3.17,140
3.17,151
3.18,150
3.18,146
3.18,145
3.18,142
3.18,140
3.18,139
3.18,135
3.19,130
3.19,127
3.19,124
3.19,121
3.19,118
3.19,115
3.2,112
3.2,109
3.2,105
3.2,102
3.2,99
3.2,96
3.21,94
3.21,92
3.21,91
3.21,93
3.21,92
3.21,90
3.21,87
3.22,89
3.22,93
3.22,91
3.22,92
3.22,92
3.22,100
3.23,100
3.23,102
3.23,101
3.23,104
3.23,108
3.23,109
3.23,108
3.24,108
3.24,108
3.24,111
3.24,117
3.24,116
3.25,115
3.25,114
3.25,118
3.25,116
3.25,123
3.25,123
3.25,121
3.26,117
3.26,115
3.26,112
3.26,109
3.26,105
3.26,102
3.27,100
3.27,97
3.27,96
3.27,95
3.27,94
3.27,99
3.27,102
3.28,113
3.28,112
3.28,110
3.28,108
3.28,106
3.28,102
3.29,100
3.29,97
3.29,104
3.29,117
3.29,136
3.29,135
3.3,145
3.3,166
3.3,162
3.3,160
3.3,158
3.3,165
3.31,167
3.31,179
3.31,178
3.31,177
3.31,178
3.31,183
3.31,180
3.32,178
3.32,175
3.32,171
3.32,167
3.32,165
3.32,162
3.33,164
3.33,161
3.33,159
3.33,162
3.33,166
3.33,176
3.34,190
3.34,194
3.34,202
3.34,200
3.34,202
3.34,202
3.35,207
3.35,202
3.35,196
3.35,194
3.35,199
3.35,200
3.35,197
3.36,198
3.36,208
3.36,206
3.36,208
3.36,203
3.36,207
3.37,221
3.37,222
3.37,223
3.37,225
3.37,230
3.37,239
3.38,244
3.38,239
3.38,236
3.38,236
3.38,232
3.38,227
3.39,232
3.39,228
3.39,228
3.39,226
3.39,236
3.39,233
3.39,229
3.4,233
3.4,243
3.4,239
3.4,253
3.4,277
3.4,277
3.41,283
3.41,312
3.41,307
3.41,312
3.41,311
3.41,312
3.42,313
3.42,310
3.42,328
3.42,330
3.42,328
3.42,320
3.43,317
3.43,328
3.43,330
3.43,329
3.43,330
3.43,339
3.44,336
3.44,349
3.44,377
3.44,385
3.44,427
3.44,508
3.44,561
3.45,612
3.45,690
3.45,689
3.45,684
3.45,671
3.45,655
3.46,635
3.46,616
3.46,599
3.46,593
3.46,577
3.46,559
3.47,548
3.47,541
3.47,533
3.47,547
3.47,558
3.47,571
3.48,560
3.48,566
3.48,562
3.48,555
3.48,546
3.48,553
3.48,543
3.49,572
3.49,579
3.49,631
3.49,682
3.49,669
3.49,655
3.5,685
3.5,745
3.5,754
3.5,733
3.5,714
3.5,725
3.51,737
3.51,721
3.51,704
3.51,684
3.51,673
3.51,684
3.52,668
3.52,671
3.52,704
3.52,694
3.52,678
3.52,693
3.52,675
3.53,670
3.53,653
3.53,636
3.53,614
3.53,605
3.53,619
3.54,626
3.54,645
3.54,645
3.54,629
3.54,640
3.54,633
3.55,621
3.55,607
3.55,598
3.55,611
3.55,596
3.55,582
3.56,582
3.56,585
3.56,599
3.56,602
3.56,630
3.56,655
3.56,645
3.57,623
3.57,606
3.57,588
3.57,572
3.57,563
3.57,556
3.58,545
3.58,528
3.58,514
3.58,502
3.58,492
3.58,507
3.59,497
3.59,482
3.59,469
3.59,479
3.59,473
3.59,464
3.6,466
3.6,459
3.6,452
3.6,454
3.6,476
3.6,493
3.6,493
3.61,534
3.61,553
3.61,577
3.61,596
3.61,582
3.61,569
3.62,552
3.62,550
3.62,569
3.62,580
3.62,571
3.62,560
3.63,549
3.63,553
3.63,548
3.63,549
3.63,546
3.63,542
3.64,555
3.64,592
3.64,596
3.64,593
3.64,591
3.64,597
3.64,605
3.65,616
3.65,617
3.65,620
3.65,627
3.65,623
3.65,628
3.66,649
3.66,663
3.66,650
3.66,638
3.66,626
3.66,631
3.67,629
3.67,641
3.67,645
3.67,639
3.67,624
3.67,603
3.68,586
3.68,571
3.68,559
3.68,556
3.68,549
3.68,531
3.68,515
3.69,503
3.69,495
3.69,497
3.69,493
3.69,499
3.69,527
3.7,536
3.7,519
3.7,507
3.7,498
3.7,482
3.7,468
3.71,466
3.71,454
3.71,447
3.71,467
3.71,468
3.71,461
3.72,450
3.72,435
3.72,432
3.72,457
3.72,471
3.72,475
3.72,488
3.73,484
3.73,482
3.73,478
3.73,497
3.73,503
3.73,494
3.74,488
3.74,477
3.74,483
3.74,472
3.74,467
3.74,466
3.75,467
3.75,464
3.75,479
3.75,495
3.75,497
3.75,487
3.76,506
3.76,533
3.76,533
3.76,527
3.76,518
3.76,525
3.77,510
3.77,498
3.77,502
3.77,492
3.77,506
3.77,519
3.77,541
3.78,538
3.78,528
3.78,525
3.78,519
3.78,508
3.78,531
3.79,541
3.79,534
3.79,537
3.79,544
3.79,529
3.79,515
3.79,509
3.8,493
3.8,479
3.8,479
3.8,474
3.8,469
3.81,484
3.81,472
3.81,457
3.81,443
3.81,450
3.81,471
3.81,464
3.82,455
3.82,455
3.82,468
3.82,483
3.82,478
3.82,471
3.83,475
3.83,473
3.83,460
3.83,444
3.83,429
3.83,416
3.83,419
3.84,438
3.84,433
3.84,455
3.84,471
3.84,461
3.85,448
3.85,437
3.85,423
3.85,409
3.85,398
3.85,388
3.85,377
3.86,368
3.86,358
3.86,348
3.86,345
3.86,337
3.86,330
3.87,321
3.87,323
3.87,340
3.87,344
3.87,342
3.87,355
3.87,370
3.88,371
3.88,363
3.88,358
3.88,350
3.88,340
3.89,335
3.89,335
3.89,332
3.89,330
3.89,327
3.89,321
3.89,317
3.9,325
3.9,326
3.9,317
3.9,316
3.9,315
3.9,313
3.91,321
3.91,334
3.91,334
3.91,328
3.91,332
3.91,334
3.91,339
3.92,333
3.92,335
3.92,347
3.92,345
3.92,357
3.92,356
3.93,356
3.93,356
3.93,352
3.93,342
3.93,330
3.93,321
3.94,318
3.94,319
3.94,312
3.94,312
3.94,305
3.94,297
3.95,288
3.95,290
3.95,286
3.95,280
3.95,283
3.95,278
3.95,277
3.96,277
3.96,270
3.96,267
3.96,260
3.96,251
3.96,243
3.97,235
3.97,227
3.97,224
3.97,232
3.97,239
3.97,249
3.98,244
3.98,246
3.98,240
3.98,234
3.98,227
3.98,221
3.98,216
3.99,209
3.99,203
3.99,196
3.99,191
3.99,187
3.99,183
4.0,178
4.0,174
4.0,169
4.0,165
4.0,159
4.0,154
4.01,149
4.01,145
4.01,140
4.01,136
4.01,132
4.01,128
4.02,124
4.02,120
4.02,117
4.02,113
4.02,110
4.02,107
4.03,103
4.03,100
4.03,98
4.03,95
4.03,92
4.03,89
4.03,87
4.04,85
4.04,83
4.04,80
4.04,79
4.04,77
4.04,75
4.05,74
4.05,74
4.05,72
4.05,70
4.05,69
4.05,67
4.05,66
4.06,64
4.06,63
4.06,67
4.06,73
4.06,73
4.06,77
4.07,79
4.07,79
4.07,78
4.07,76
4.07,75
4.07,75
4.07,75
4.08,75
4.08,84
4.08,84
4.08,86
4.08,84
4.08,82
4.09,80
4.09,78
4.09,76
4.09,74
4.09,72
4.09,70
4.09,68
4.1,67
4.1,65
4.1,64
4.1,64
4.1,63
4.1,61
4.11,60
4.11,58
4.11,57
4.11,55
4.11,54
4.11,53
4.11,51
4.12,50
4.12,49
4.12,49
4.12,47
4.12,46
4.12,45
4.13,44
4.13,43
4.13,42
4.13,42
4.13,41
4.13,40
4.13,41
4.14,41
4.14,40
4.14,39
4.14,38
4.14,38
4.14,38
4.15,37
4.15,37
4.15,36
4.15,37
4.15,37
4.15,36
4.16,36
4.16,35
4.16,34
4.16,36
4.16,44
4.16,51
4.16,56
4.17,60
4.17,63
4.17,68
4.17,73
4.17,74
4.17,74
4.17,73
4.18,75
4.18,74
4.18,75
4.18,78
4.18,78
4.19,77
4.19,76
4.19,74
4.19,72
4.19,70
4.19,67
4.19,66
4.2,64
4.2,66
4.2,69
4.2,73
4.2,74
4.2,78
4.2,75
4.21,73
4.21,71
4.21,70
4.21,68
4.21,66
4.21,64
4.22,63
4.22,61
4.22,60
4.22,59
4.22,57
4.22,56
4.23,55
4.23,54
4.23,52
4.23,51
4.23,50
4.23,49
4.23,48
4.24,47
4.24,46
4.24,45
4.24,44
4.24,43
4.24,42
4.25,42
4.25,41
4.25,40
4.25,39
4.25,39
4.25,38
4.25,37
4.26,36
4.26,36
4.26,35
4.26,35
4.26,34
4.26,35
4.26,39
4.27,43
4.27,49
4.27,48
4.27,49
4.27,58
4.27,61
4.28,62
4.28,62
4.28,61
4.28,59
4.28,58
4.28,58
4.28,57
4.29,56
4.29,55
4.29,53
4.29,52
4.29,51
4.29,55
4.3,58
4.3,57
4.3,61
4.3,60
4.3,59
4.3,58
4.3,56
4.31,55
4.31,53
4.31,52
4.31,51
4.31,50
4.32,48
4.32,47
4.32,47
4.32,47
4.32,46
4.32,45
4.32,44
4.32,43
4.33,42
4.33,41
4.33,42
4.33,41
4.33,40
4.33,39
4.34,39
4.34,38
4.34,37
4.34,36
4.34,36
4.34,35
4.34,35
4.35,34
4.35,34
4.35,39
4.35,45
4.35,47
4.36,54
4.36,55
4.36,54
4.36,56
4.36,56
4.36,57
4.36,57
4.36,58
4.37,58
4.37,57
4.37,56
4.37,55
4.37,53
4.37,52
4.38,51
4.38,50
4.38,48
4.38,47
4.38,46
4.38,46
4.39,46
4.39,46
4.39,46
4.39,46
4.39,45
4.39,44
4.4,43
4.4,43
4.4,42
4.4,41
4.4,41
4.4,41
4.4,41
4.41,39
4.41,39
4.41,38
4.41,38
4.41,37
4.41,36
4.42,35
4.42,35
4.42,36
4.42,35
4.42,34
4.42,34
4.42,33
4.43,33
4.43,32
4.43,32
4.43,31
4.43,31
4.43,31
4.43,31
4.44,31
4.44,30
4.44,30
4.44,29
4.44,29
4.44,29
4.45,28
4.45,28
4.45,27
4.45,27
4.45,27
4.45,27
4.46,26
4.46,26
4.46,25
4.46,26
4.46,25
4.46,25
4.46,26
4.47,27
4.47,29
4.47,29
4.47,28
4.47,28
4.47,28
4.48,27
4.48,27
4.48,27
4.48,27
4.48,26
4.48,26
4.49,28
4.49,29
4.49,28
4.49,28
4.49,28
4.49,27
4.49,27
4.5,26
4.5,26
4.5,26
4.5,26
4.5,26
4.5,26
4.5,25
4.51,25
4.51,25
4.51,25
4.51,25
4.51,24
4.51,24
4.51,24
4.52,24
4.52,24
4.52,25
4.52,25
4.52,24
4.53,24
4.53,24
4.53,23
4.53,23
4.53,22
4.53,22
4.53,22
4.54,22
4.54,22
4.54,22
4.54,22
4.54,22
4.54,22
4.55,22
4.55,21
4.55,21
4.55,21
4.55,21
4.55,21
4.55,21
4.55,21
4.56,21
4.56,21
4.56,21
4.56,21
4.56,20
4.56,20
4.57,20
4.57,21
4.57,22
4.57,22
4.57,22
4.57,22
4.58,22
4.58,21
4.58,21
4.58,21
4.58,21
4.58,21
4.59,23
4.59,24
4.59,24
4.59,24
4.59,23
4.59,23
4.59,23
4.6,23
4.6,23
4.6,22
4.6,22
4.6,22
4.6,22
4.61,22
4.61,21
4.61,21
4.61,21
4.61,22
4.61,21
4.61,22
4.62,23
4.62,22
4.62,22
4.62,22
4.62,21
4.62,22
4.63,22
4.63,21
4.63,24
4.63,24
4.63,24
4.63,25
4.63,28
4.64,30
4.64,30
4.64,29
4.64,29
4.64,29
4.64,28
4.65,28
4.65,27
4.65,28
4.65,30
4.65,32
4.65,32
4.66,32
4.66,32
4.66,32
4.66,31
4.66,30
4.66,30
4.66,30
4.67,30
4.67,30
4.67,31
4.67,30
4.67,29
4.67,30
4.68,30
4.68,30
4.68,30
4.68,29
4.68,29
4.68,29
4.68,29
4.69,28
4.69,28
4.69,27
4.69,28
4.69,28
4.69,29
4.7,29
4.7,29
4.7,29
4.7,28
4.7,30
4.7,30
4.7,30
4.71,29
4.71,30
4.71,31
4.71,31
4.71,31
4.71,30
4.72,30
4.72,30
4.72,29
4.72,30
4.72,31
4.72,31
4.72,31
4.73,32
4.73,31
4.73,31
4.73,31
4.73,30
4.73,30
4.74,32
4.74,31
4.74,31
4.74,31
4.74,31
4.74,30
4.75,30
4.75,30
4.75,29
4.75,29
4.75,31
4.75,33
4.75,33
4.76,32
4.76,33
4.76,35
4.76,35
4.76,34
4.76,33
4.76,33
4.77,32
4.77,32
4.77,32
4.77,32
4.77,31
4.77,31
4.78,31
4.78,30
4.78,30
4.78,30
4.78,29
4.78,28
4.78,28
4.79,28
4.79,28
4.79,27
4.79,27
4.79,27
4.79,27
4.8,26
4.8,26
4.8,26
4.8,26
4.8,27
4.8,28
4.8,27
4.81,27
4.81,27
4.81,26
4.81,27
4.81,26
4.81,26
4.82,25
4.82,25
4.82,26
4.82,26
4.82,25
4.82,25
4.82,25
4.83,24
4.83,24
4.83,23
4.83,23
4.83,23
4.83,23
4.84,23
4.84,23
4.84,23
4.84,22
4.84,22
4.84,22
4.84,22
4.85,22
4.85,22
4.85,22
4.85,22
4.85,23
4.85,23
4.86,23
4.86,23
4.86,24
4.86,24
4.86,24
4.86,24
4.87,24
4.87,24
4.87,26
4.87,27
4.87,26
4.87,26
4.88,26
4.88,25
4.88,25
4.88,25
4.88,25
4.88,24
4.88,25
4.89,24
4.89,24
4.89,24
4.89,26
4.89,26
4.89,26
4.89,25
4.9,26
4.9,26
4.9,26
4.9,27
4.9,28
4.9,28
4.91,28
4.91,27
4.91,27
4.91,27
4.91,27
4.91,26
4.92,26
4.92,26
4.92,25
4.92,25
4.92,25
4.92,25
4.92,24
4.93,24
4.93,23
4.93,23
4.93,23
4.93,23
4.93,22
4.94,23
4.94,23
4.94,23
4.94,24
4.94,24
4.94,24
4.94,24
4.95,24
4.95,25
4.95,25
4.95,26
4.95,26
4.95,26
4.96,26
4.96,26
4.96,25
4.96,25
4.96,25
4.96,25
4.96,25
4.97,25
4.97,24
4.97,25
4.97,25
4.97,26
4.97,25
4.98,25
4.98,25
4.98,24
4.98,24
4.98,23
4.98,23
4.98,24
4.99,24
4.99,24
4.99,24
4.99,24
4.99,23
4.99,23
5.0,22
5.0,23
5.0,23
5.0,23
5.0,23
5.0,23
5.01,22
5.01,22
5.01,22
5.01,22
5.01,23
5.01,23
5.01,23
5.01,23
5.02,24
5.02,26
5.02,28
5.02,28
5.02,27
5.02,27
5.03,27
5.03,27
5.03,27
5.03,27
5.03,26
5.03,26
5.04,26
5.04,26
5.04,25
5.04,25
5.04,25
5.04,25
5.05,25
5.05,25
5.05,24
5.05,24
5.05,23
5.05,24
5.05,24
5.05,24
5.06,24
5.06,23
5.06,23
5.06,23
5.06,23
5.06,23
5.07,23
5.07,23
5.07,24
5.07,24
5.07,23
5.07,24
5.07,23
5.08,23
5.08,23
5.08,23
5.08,22
5.08,22
5.09,22
5.09,22
5.09,22
5.09,22
5.09,21
5.09,21
5.09,21
5.09,21
5.1,22
5.1,21
5.1,21
5.1,22
5.1,23
5.1,22
5.11,22
5.11,23
5.11,23
5.11,23
5.11,23
5.11,24
5.11,23
5.12,23
5.12,24
5.12,25
5.12,25
5.12,25
5.13,25
5.13,24
5.13,24
5.13,23
5.13,23
5.13,24
5.13,23
5.14,24
5.14,23
5.14,23
5.14,23
5.14,22
5.14,23
5.15,23
5.15,22
5.15,22
5.15,22
5.15,22
5.15,24
5.15,24
5.16,24
5.16,25
5.16,25
5.16,26
5.16,27
5.16,26
5.17,26
5.17,26
5.17,28
5.17,29
5.17,30
5.17,30
5.17,31
5.18,31
5.18,32
5.18,32
5.18,31
5.18,31
5.18,30
5.19,32
5.19,32
5.19,32
5.19,32
5.19,32
5.19,32
5.19,32
5.2,32
5.2,31
5.2,31
5.2,31
5.2,33
5.2,34
5.21,34
5.21,33
5.21,32
5.21,33
5.21,32
5.21,32
5.22,31
5.22,31
5.22,31
5.22,31
5.22,31
5.22,30
5.22,30
5.23,30
5.23,29
5.23,29
5.23,29
5.23,29
5.23,30
5.23,29
5.24,29
5.24,29
5.24,30
5.24,32
5.24,32
5.24,32
5.25,31
5.25,32
5.25,32
5.25,32
5.25,32
5.25,32
5.26,32
5.26,31
5.26,30
5.26,31
5.26,31
5.26,30
5.26,30
5.27,29
5.27,29
5.27,29
5.27,29
5.27,28
5.27,28
5.28,27
5.28,27
5.28,26
5.28,26
5.28,26
5.28,25
5.28,25
5.28,26
5.29,26
5.29,26
5.29,25
5.29,26
5.29,25
5.3,25
5.3,24
5.3,24
5.3,24
5.3,23
5.3,23
5.3,23
5.31,23
5.31,22
5.31,22
5.31,22
5.31,22
5.31,22
5.32,22
5.32,22
5.32,23
5.32,23
5.32,23
5.32,23
5.32,23
5.33,22
5.33,23
5.33,23
5.33,23
5.33,23
5.33,23
5.34,23
5.34,23
5.34,23
5.34,23
5.34,23
5.34,22
5.34,23
5.35,23
5.35,23
5.35,23
5.35,22
5.35,23
5.35,23
5.36,22
5.36,22
5.36,23
5.36,23
5.36,23
5.36,23
5.36,22
5.37,22
5.37,22
5.37,22
5.37,22
5.37,22
5.37,22
5.38,22
5.38,21
5.38,22
5.38,22
5.38,21
5.38,21
5.39,21
5.39,21
5.39,21
5.39,21
5.39,21
5.39,21
5.39,21
5.4,21
5.4,21
5.4,21
5.4,21
5.4,21
5.4,22
5.41,22
5.41,21
5.41,21
5.41,21
5.41,20
5.41,20
5.41,20
5.42,20
5.42,20
5.42,20
5.42,19
5.42,20
5.42,19
5.43,19
5.43,19
5.43,19
5.43,19
5.43,19
5.43,19
5.43,19
5.44,18
5.44,18
5.44,19
5.44,19
5.44,20
5.44,20
5.45,20
5.45,20
5.45,20
5.45,20
5.45,21
5.45,22
