Time_s,ADC
0.0,68
0.0,67
0.0,66
0.0,65
0.01,64
0.01,63
0.01,62
0.01,62
0.01,61
0.01,62
0.01,61
0.02,60
0.02,59
0.02,58
0.02,58
0.02,57
0.02,55
0.03,54
0.03,54
0.03,53
0.03,53
0.03,52
0.03,52
0.03,54
0.04,54
0.04,54
0.04,53
0.04,52
0.04,53
0.04,54
0.05,55
0.05,56
0.05,55
0.05,56
0.05,55
0.05,55
0.05,56
0.06,55
0.06,54
0.06,55
0.06,55
0.06,54
0.06,54
0.07,53
0.07,52
0.07,53
0.07,52
0.07,51
0.07,50
0.07,49
0.08,51
0.08,51
0.08,52
0.08,52
0.08,51
0.08,50
0.09,49
0.09,49
0.09,50
0.09,49
0.09,48
0.09,48
0.1,48
0.1,48
0.1,49
0.1,48
0.1,48
0.1,48
0.1,49
0.11,48
0.11,48
0.11,47
0.11,47
0.11,47
0.11,48
0.11,48
0.12,47
0.12,45
0.12,44
0.12,45
0.12,44
0.12,44
0.12,43
0.13,44
0.13,44
0.13,45
0.13,44
0.13,44
0.13,44
0.14,44
0.14,46
0.14,48
0.14,47
0.14,47
0.14,47
0.14,49
0.15,52
0.15,54
0.15,54
0.15,54
0.15,53
0.15,54
0.16,55
0.16,54
0.16,53
0.16,53
0.16,54
0.16,54
0.17,54
0.17,53
0.17,51
0.17,52
0.17,53
0.17,53
0.17,51
0.18,53
0.18,54
0.18,54
0.18,53
0.18,53
0.18,53
0.19,52
0.19,53
0.19,54
0.19,56
0.19,55
0.19,55
0.19,58
0.2,63
0.2,63
0.2,62
0.2,63
0.2,63
0.2,65
0.2,65
0.21,65
0.21,64
0.21,64
0.21,63
0.21,64
0.22,64
0.22,63
0.22,62
0.22,61
0.22,64
0.22,64
0.22,63
0.22,64
0.23,65
0.23,64
0.23,63
0.23,62
0.23,61
0.23,60
0.24,59
0.24,60
0.24,60
0.24,61
0.24,63
0.24,65
0.25,65
0.25,66
0.25,65
0.25,63
0.25,61
0.25,62
0.25,65
0.26,67
0.26,68
0.26,66
0.26,68
0.26,71
0.26,73
0.26,72
0.27,69
0.27,68
0.27,67
0.27,66
0.27,64
0.27,63
0.28,63
0.28,62
0.28,61
0.28,61
0.28,60
0.28,59
0.28,58
0.29,58
0.29,59
0.29,59
0.29,59
0.29,62
0.29,64
0.3,66
0.3,65
0.3,64
0.3,63
0.3,61
0.3,60
0.31,60
0.31,59
0.31,58
0.31,57
0.31,56
0.31,54
0.31,54
0.32,53
0.32,58
0.32,60
0.32,60
0.32,62
0.32,62
0.32,62
0.33,66
0.33,69
0.33,70
0.33,68
0.33,67
0.33,66
0.34,65
0.34,64
0.34,63
0.34,63
0.34,62
0.34,60
0.35,60
0.35,62
0.35,62
0.35,60
0.35,59
0.35,58
0.35,57
0.36,57
0.36,55
0.36,56
0.36,56
0.36,57
0.36,57
0.37,56
0.37,57
0.37,58
0.37,63
0.37,68
0.37,67
0.37,71
0.38,77
0.38,79
0.38,80
0.38,80
0.38,78
0.38,76
0.39,74
0.39,74
0.39,73
0.39,72
0.39,70
0.39,70
0.4,69
0.4,68
0.4,67
0.4,68
0.4,67
0.4,65
0.4,65
0.41,63
0.41,62
0.41,64
0.41,66
0.41,66
0.41,68
0.41,67
0.42,65
0.42,64
0.42,62
0.42,63
0.42,63
0.42,63
0.43,64
0.43,64
0.43,64
0.43,63
0.43,66
0.43,73
0.44,77
0.44,76
0.44,75
0.44,74
0.44,72
0.44,72
0.44,71
0.45,70
0.45,69
0.45,69
0.45,70
0.45,68
0.45,67
0.45,66
0.46,64
0.46,62
0.46,63
0.46,64
0.46,65
0.46,67
0.46,66
0.47,64
0.47,63
0.47,63
0.47,63
0.47,63
0.47,61
0.48,61
0.48,60
0.48,58
0.48,58
0.48,58
0.48,59
0.49,60
0.49,59
0.49,59
0.49,58
0.49,59
0.49,61
0.5,61
0.5,62
0.5,61
0.5,60
0.5,59
0.5,59
0.5,63
0.51,65
0.51,65
0.51,65
0.51,66
0.51,65
0.51,66
0.52,67
0.52,66
0.52,67
0.52,66
0.52,65
0.52,65
0.52,63
0.53,62
0.53,62
0.53,60
0.53,59
0.53,61
0.53,61
0.54,61
0.54,60
0.54,59
0.54,58
0.54,59
0.54,61
0.54,62
0.55,63
0.55,63
0.55,61
0.55,60
0.55,59
0.55,61
0.56,63
0.56,63
0.56,62
0.56,61
0.56,62
0.56,65
0.56,65
0.57,64
0.57,63
0.57,61
0.57,61
0.57,61
0.57,61
0.57,60
0.58,59
0.58,59
0.58,60
0.58,58
0.58,57
0.58,56
0.59,55
0.59,56
0.59,56
0.59,56
0.59,55
0.59,54
0.6,55
0.6,59
0.6,62
0.6,61
0.6,60
0.6,59
0.61,60
0.61,60
0.61,59
0.61,60
0.61,59
0.61,58
0.61,57
0.61,56
0.62,56
0.62,55
0.62,54
0.62,55
0.62,56
0.63,55
0.63,55
0.63,56
0.63,57
0.63,57
0.63,56
0.63,54
0.63,55
0.64,54
0.64,55
0.64,54
0.64,54
0.64,52
0.65,51
0.65,51
0.65,50
0.65,49
0.65,51
0.65,51
0.65,52
0.66,55
0.66,56
0.66,56
0.66,57
0.66,56
0.66,59
0.67,60
0.67,59
0.67,58
0.67,57
0.67,58
0.67,60
0.67,60
0.68,59
0.68,59
0.68,61
0.68,63
0.68,63
0.68,62
0.69,60
0.69,59
0.69,61
0.69,60
0.69,58
0.69,59
0.69,60
0.7,59
0.7,59
0.7,58
0.7,57
0.7,56
0.7,56
0.7,57
0.71,56
0.71,55
0.71,54
0.71,53
0.71,52
0.71,53
0.71,52
0.72,52
0.72,53
0.72,53
0.72,54
0.72,54
0.72,54
0.73,53
0.73,52
0.73,55
0.73,55
0.73,54
0.74,53
0.74,52
0.74,53
0.74,54
0.74,52
0.74,52
0.74,53
0.75,54
0.75,54
0.75,54
0.75,53
0.75,52
0.75,51
0.75,55
0.76,57
0.76,56
0.76,56
0.76,58
0.76,59
0.76,62
0.76,61
0.77,60
0.77,58
0.77,58
0.77,60
0.77,60
0.77,58
0.78,58
0.78,58
0.78,57
0.78,57
0.78,56
0.78,55
0.79,54
0.79,54
0.79,55
0.79,55
0.79,54
0.79,53
0.79,55
0.8,56
0.8,57
0.8,56
0.8,57
0.8,55
0.8,55
0.81,54
0.81,53
0.81,52
0.81,53
0.81,53
0.81,55
0.81,55
0.82,54
0.82,53
0.82,52
0.82,53
0.82,53
0.82,53
0.83,52
0.83,51
0.83,50
0.83,50
0.83,49
0.83,48
0.83,47
0.84,47
0.84,51
0.84,54
0.84,55
0.84,61
0.84,64
0.85,64
0.85,64
0.85,63
0.85,63
0.85,61
0.85,61
0.86,62
0.86,63
0.86,62
0.86,61
0.86,61
0.86,59
0.86,60
0.87,59
0.87,58
0.87,57
0.87,57
0.87,59
0.87,58
0.88,57
0.88,57
0.88,57
0.88,57
0.88,57
0.88,57
0.88,56
0.88,54
0.89,57
0.89,61
0.89,61
0.89,62
0.89,63
0.89,61
0.9,59
0.9,58
0.9,57
0.9,56
0.9,56
0.9,56
0.91,57
0.91,57
0.91,56
0.91,58
0.91,57
0.91,58
0.91,58
0.92,59
0.92,58
0.92,56
0.92,55
0.92,54
0.92,52
0.93,52
0.93,52
0.93,51
0.93,54
0.93,55
0.93,53
0.93,52
0.94,53
0.94,55
0.94,55
0.94,53
0.94,54
0.95,55
0.95,53
0.95,52
0.95,52
0.95,51
0.95,51
0.95,51
0.95,54
0.96,55
0.96,56
0.96,55
0.96,59
0.96,62
0.96,63
0.97,62
0.97,60
0.97,60
0.97,59
0.97,60
0.97,61
0.98,61
0.98,59
0.98,58
0.98,57
0.98,56
0.98,55
0.98,54
0.99,54
0.99,53
0.99,52
0.99,51
0.99,51
0.99,52
1.0,52
1.0,50
1.0,49
1.0,51
1.0,51
1.0,49
1.0,51
1.01,52
1.01,51
1.01,51
1.01,53
1.01,53
1.01,56
1.01,56
1.02,55
1.02,54
1.02,54
1.02,53
1.02,52
1.02,52
1.03,50
1.03,50
1.03,49
1.03,48
1.03,47
1.03,46
1.03,46
1.04,48
1.04,53
1.04,57
1.04,57
1.04,61
1.04,65
1.05,66
1.05,66
1.05,65
1.05,64
1.05,63
1.05,62
1.05,64
1.06,66
1.06,66
1.06,65
1.06,65
1.06,64
1.06,66
1.07,65
1.07,64
1.07,64
1.07,63
1.07,63
1.07,63
1.08,62
1.08,61
1.08,60
1.08,59
1.08,58
1.08,57
1.08,56
1.09,54
1.09,56
1.09,59
1.09,61
1.09,61
1.09,62
1.1,68
1.1,73
1.1,72
1.1,70
1.1,69
1.1,67
1.1,68
1.11,68
1.11,67
1.11,66
1.11,65
1.11,64
1.11,64
1.12,62
1.12,62
1.12,61
1.12,59
1.12,58
1.12,57
1.12,56
1.13,57
1.13,57
1.13,57
1.13,57
1.13,55
1.13,55
1.13,53
1.14,53
1.14,54
1.14,55
1.14,55
1.14,55
1.14,54
1.15,54
1.15,55
1.15,54
1.15,53
1.15,52
1.15,52
1.16,53
1.16,52
1.16,50
1.16,51
1.16,51
1.16,52
1.16,52
1.17,52
1.17,50
1.17,49
1.17,51
1.17,50
1.17,49
1.18,48
1.18,50
1.18,51
1.18,51
1.18,50
1.18,49
1.18,48
1.19,48
1.19,49
1.19,50
1.19,50
1.19,49
1.2,50
1.2,50
1.2,49
1.2,49
1.2,50
1.2,49
1.2,48
1.21,48
1.21,47
1.21,48
1.21,52
1.21,53
1.21,53
1.21,52
1.22,55
1.22,59
1.22,58
1.22,58
1.22,58
1.22,57
1.23,56
1.23,55
1.23,55
1.23,55
1.23,55
1.23,53
1.23,52
1.24,52
1.24,51
1.24,50
1.24,49
1.24,50
1.24,53
1.25,54
1.25,56
1.25,58
1.25,57
1.25,55
1.25,57
1.25,64
1.26,69
1.26,70
1.26,72
1.26,77
1.26,79
1.26,80
1.26,78
1.27,78
1.27,76
1.27,77
1.27,78
1.27,77
1.27,76
1.28,76
1.28,73
1.28,73
1.28,76
1.28,75
1.28,73
1.29,72
1.29,77
1.29,82
1.29,85
1.29,84
1.29,84
1.29,84
1.3,92
1.3,99
1.3,101
1.3,100
1.3,98
1.3,100
1.31,100
1.31,98
1.31,96
1.31,97
1.31,97
1.31,94
1.32,92
1.32,94
1.32,94
1.32,91
1.32,88
1.32,86
1.33,88
1.33,90
1.33,91
1.33,91
1.33,88
1.33,88
1.33,87
1.34,85
1.34,84
1.34,83
1.34,83
1.34,83
1.34,80
1.35,78
1.35,76
1.35,74
1.35,76
1.35,78
1.35,76
1.35,75
1.36,73
1.36,72
1.36,72
1.36,71
1.36,71
1.36,70
1.36,74
1.37,73
1.37,71
1.37,71
1.37,75
1.37,77
1.37,77
1.38,76
1.38,77
1.38,79
1.38,80
1.38,82
1.38,83
1.38,83
1.39,81
1.39,84
1.39,91
1.39,97
1.39,99
1.39,101
1.4,101
1.4,99
1.4,99
1.4,99
1.4,96
1.4,93
1.4,96
1.41,100
1.41,98
1.41,101
1.41,103
1.41,103
1.41,101
1.42,101
1.42,100
1.42,98
1.42,98
1.42,98
1.42,96
1.43,96
1.43,97
1.43,98
1.43,99
1.43,98
1.43,103
1.43,101
1.44,99
1.44,98
1.44,97
1.44,95
1.44,93
1.44,93
1.45,92
1.45,92
1.45,90
1.45,89
1.45,87
1.45,85
1.46,84
1.46,83
1.46,81
1.46,79
1.46,77
1.46,75
1.47,75
1.47,78
1.47,82
1.47,80
1.47,78
1.47,77
1.47,75
1.48,73
1.48,72
1.48,70
1.48,69
1.48,67
1.48,66
1.48,65
1.49,68
1.49,68
1.49,67
1.49,71
1.49,73
1.49,73
1.5,72
1.5,70
1.5,69
1.5,70
1.5,68
1.5,66
1.5,67
1.51,66
1.51,64
1.51,65
1.51,66
1.51,66
1.51,66
1.52,64
1.52,67
1.52,66
1.52,67
1.52,71
1.52,74
1.52,73
1.53,72
1.53,71
1.53,70
1.53,70
1.53,70
1.53,71
1.54,71
1.54,69
1.54,70
1.54,70
1.54,69
1.54,68
1.54,68
1.55,66
1.55,68
1.55,68
1.55,69
1.55,69
1.55,70
1.56,71
1.56,70
1.56,72
1.56,74
1.56,74
1.56,72
1.57,71
1.57,72
1.57,70
1.57,71
1.57,70
1.57,71
1.57,70
1.58,70
1.58,73
1.58,77
1.58,80
1.58,80
1.58,88
1.59,91
1.59,93
1.59,95
1.59,96
1.59,95
1.59,93
1.6,94
1.6,96
1.6,96
1.6,96
1.6,96
1.6,94
1.6,92
1.61,90
1.61,88
1.61,86
1.61,84
1.61,81
1.61,80
1.61,78
1.62,77
1.62,76
1.62,75
1.62,73
1.62,73
1.62,72
1.63,71
1.63,72
1.63,72
1.63,71
1.63,71
1.63,71
1.63,70
1.64,68
1.64,70
1.64,72
1.64,73
1.64,73
1.64,76
1.65,77
1.65,85
1.65,86
1.65,88
1.65,86
1.65,85
1.65,84
1.66,82
1.66,80
1.66,78
1.66,76
1.66,76
1.66,77
1.67,82
1.67,81
1.67,78
1.67,79
1.67,84
1.67,85
1.67,85
1.68,82
1.68,80
1.68,78
1.68,76
1.68,74
1.68,72
1.69,72
1.69,74
1.69,83
1.69,86
1.69,100
1.69,105
1.7,104
1.7,109
1.7,108
1.7,109
1.7,107
1.7,107
1.7,108
1.71,107
1.71,103
1.71,105
1.71,109
1.71,107
1.72,114
1.72,113
1.72,118
1.72,123
1.72,128
1.72,129
1.72,129
1.73,126
1.73,123
1.73,123
1.73,125
1.73,128
1.73,124
1.74,121
1.74,118
1.74,118
1.74,127
1.74,126
1.74,132
1.75,138
1.75,137
1.75,134
1.75,133
1.75,130
1.75,127
1.75,124
1.76,121
1.76,118
1.76,116
1.76,115
1.76,118
1.76,117
1.77,120
1.77,120
1.77,116
1.77,116
1.77,115
1.77,113
1.77,111
1.78,115
1.78,115
1.78,113
1.78,112
1.78,118
1.78,119
1.79,122
1.79,123
1.79,124
1.79,120
1.79,117
1.79,114
1.8,114
1.8,112
1.8,109
1.8,107
1.8,104
1.8,103
1.81,101
1.81,99
1.81,102
1.81,100
1.81,98
1.81,96
1.82,93
1.82,95
1.82,95
1.82,95
1.82,96
1.82,96
1.82,94
1.83,92
1.83,91
1.83,89
1.83,90
1.83,89
1.83,87
1.84,86
1.84,86
1.84,92
1.84,96
1.84,101
1.84,101
1.85,104
1.85,107
1.85,114
1.85,121
1.85,124
1.85,123
1.85,125
1.86,126
1.86,124
1.86,120
1.86,122
1.86,120
1.86,118
1.86,116
1.87,118
1.87,117
1.87,116
1.87,117
1.87,116
1.88,114
1.88,112
1.88,111
1.88,112
1.88,112
1.88,110
1.88,111
1.89,111
1.89,115
1.89,115
1.89,115
1.89,116
1.89,113
1.9,112
1.9,110
1.9,107
1.9,104
1.9,103
1.9,101
1.9,105
1.91,103
1.91,103
1.91,101
1.91,104
1.91,109
1.91,108
1.92,108
1.92,107
1.92,107
1.92,109
1.92,110
1.92,110
1.93,109
1.93,113
1.93,116
1.93,116
1.93,117
1.93,120
1.94,120
1.94,124
1.94,130
1.94,132
1.94,130
1.94,127
1.95,126
1.95,125
1.95,124
1.95,120
1.95,117
1.95,117
1.96,119
1.96,123
1.96,126
1.96,125
1.96,122
1.96,121
1.97,118
1.97,115
1.97,112
1.97,109
1.97,106
1.97,104
1.97,103
1.98,104
1.98,102
1.98,99
1.98,97
1.98,99
1.98,98
1.98,97
1.99,97
1.99,95
1.99,93
1.99,91
1.99,90
1.99,90
2.0,90
2.0,94
2.0,105
2.0,108
2.0,112
2.0,118
2.01,126
2.01,136
2.01,140
2.01,142
2.01,139
2.01,150
2.02,152
2.02,153
2.02,151
2.02,149
2.02,153
2.02,149
2.03,146
2.03,142
2.03,142
2.03,142
2.03,141
2.03,138
2.03,135
2.04,133
2.04,130
2.04,127
2.04,124
2.04,123
2.04,123
2.05,128
2.05,134
2.05,137
2.05,143
2.05,140
2.05,137
2.06,136
2.06,136
2.06,144
2.06,140
2.06,137
2.06,133
2.07,130
2.07,126
2.07,123
2.07,121
2.07,118
2.07,126
2.07,136
2.08,134
2.08,133
2.08,135
2.08,140
2.08,139
2.08,138
2.09,141
2.09,148
2.09,150
2.09,153
2.09,150
2.09,149
2.1,158
2.1,159
2.1,165
2.1,166
2.1,165
2.1,161
2.11,168
2.11,185
2.11,188
2.11,191
2.11,193
2.11,195
2.11,192
2.12,194
2.12,195
2.12,190
2.12,188
2.12,186
2.12,183
2.13,180
2.13,185
2.13,182
2.13,180
2.13,177
2.13,173
2.14,170
2.14,168
2.14,165
2.14,170
2.14,181
2.14,177
2.15,173
2.15,173
2.15,173
2.15,182
2.15,183
2.15,188
2.15,186
2.16,186
2.16,181
2.16,187
2.16,186
2.16,190
2.16,201
2.17,195
2.17,193
2.17,192
2.17,200
2.17,215
2.17,222
2.17,235
2.18,228
2.18,224
2.18,223
2.18,218
2.18,214
2.19,208
2.19,202
2.19,197
2.19,196
2.19,194
2.19,189
2.19,190
2.2,187
2.2,190
2.2,193
2.2,189
2.2,182
2.2,178
2.21,176
2.21,171
2.21,166
2.21,163
2.21,169
2.21,181
2.22,185
2.22,196
2.22,197
2.22,206
2.22,213
2.22,227
2.23,223
2.23,216
2.23,211
2.23,206
2.23,202
2.23,197
2.23,192
2.24,188
2.24,203
2.24,209
2.24,215
2.24,210
2.24,210
2.25,206
2.25,201
2.25,196
2.25,194
2.25,194
2.25,200
2.26,195
2.26,190
2.26,192
2.26,189
2.26,192
2.26,189
2.27,187
2.27,186
2.27,183
2.27,183
2.27,181
2.27,183
2.27,215
2.28,228
2.28,244
2.28,243
2.28,235
2.28,227
2.28,229
2.29,227
2.29,219
2.29,215
2.29,209
2.29,202
2.29,197
2.3,192
2.3,195
2.3,215
2.3,219
2.3,223
2.3,217
2.31,212
2.31,209
2.31,205
2.31,202
2.31,203
2.31,201
2.31,200
2.32,201
2.32,208
2.32,207
2.32,211
2.32,210
2.32,206
2.33,199
2.33,196
2.33,196
2.33,191
2.33,191
2.33,196
2.34,203
2.34,210
2.34,208
2.34,201
2.34,194
2.34,189
2.34,186
2.35,192
2.35,194
2.35,194
2.35,192
2.35,187
2.36,182
2.36,181
2.36,177
2.36,172
2.36,166
2.36,164
2.36,169
2.37,176
2.37,172
2.37,168
2.37,176
2.37,176
2.37,171
2.38,171
2.38,168
2.38,166
2.38,165
2.38,170
2.38,185
2.38,185
2.39,183
2.39,181
2.39,181
2.39,185
2.39,189
2.4,188
2.4,189
2.4,189
2.4,184
2.4,177
2.4,173
2.4,168
2.41,165
2.41,161
2.41,156
2.41,154
2.41,157
2.41,165
2.42,180
2.42,180
2.42,177
2.42,174
2.42,172
2.42,170
2.42,166
2.43,161
2.43,158
2.43,156
2.43,166
2.43,166
2.44,170
2.44,166
2.44,161
2.44,161
2.44,162
2.44,165
2.44,160
2.45,159
2.45,157
2.45,158
2.45,167
2.45,165
2.45,167
2.46,166
2.46,163
2.46,159
2.46,154
2.46,151
2.46,152
2.46,155
2.47,154
2.47,152
2.47,154
2.47,155
2.47,155
2.48,154
2.48,152
2.48,150
2.48,147
2.48,143
2.48,143
2.48,153
2.49,158
2.49,182
2.49,186
2.49,192
2.49,205
2.49,213
2.5,216
2.5,214
2.5,216
2.5,219
2.5,214
2.5,209
2.5,208
2.51,208
2.51,203
2.51,198
2.51,193
2.51,196
2.51,195
2.52,197
2.52,223
2.52,237
2.52,234
2.52,230
2.52,236
2.53,236
2.53,228
2.53,224
2.53,222
2.53,228
2.53,225
2.54,225
2.54,220
2.54,214
2.54,209
2.54,203
2.54,200
2.54,195
2.55,196
2.55,193
2.55,192
2.55,189
2.55,183
2.55,177
2.56,173
2.56,172
2.56,168
2.56,178
2.56,182
2.56,179
2.57,174
2.57,172
2.57,168
2.57,163
2.57,159
2.57,156
2.58,152
2.58,150
2.58,151
2.58,149
2.58,145
2.58,141
2.58,139
2.59,135
2.59,136
2.59,136
2.59,134
2.59,132
2.59,135
2.6,136
2.6,148
2.6,156
2.6,161
2.6,167
2.6,180
2.61,179
2.61,178
2.61,182
2.61,188
2.61,192
2.61,188
2.62,189
2.62,188
2.62,188
2.62,184
2.62,179
2.62,174
2.63,169
2.63,164
2.63,160
2.63,156
2.63,155
2.63,153
2.63,149
2.64,146
2.64,145
2.64,143
2.64,141
2.64,138
2.64,135
2.65,137
2.65,134
2.65,131
2.65,134
2.65,131
2.65,134
2.66,135
2.66,133
2.66,135
2.66,134
2.66,143
2.66,146
2.67,145
2.67,152
2.67,149
2.67,149
2.67,147
2.67,143
2.67,141
2.68,138
2.68,136
2.68,132
2.68,131
2.68,136
2.68,133
2.69,130
2.69,126
2.69,123
2.69,120
2.69,117
2.69,115
2.7,114
2.7,112
2.7,111
2.7,108
2.7,104
2.7,102
2.71,100
2.71,98
2.71,96
2.71,97
2.71,97
2.71,100
2.71,101
2.72,102
2.72,100
2.72,99
2.72,99
2.72,101
2.72,104
2.73,104
2.73,101
2.73,99
2.73,97
2.73,96
2.73,94
2.74,91
2.74,89
2.74,87
2.74,87
2.74,85
2.74,89
2.74,88
2.75,86
2.75,85
2.75,86
2.75,84
2.75,82
2.75,80
2.75,79
2.76,80
2.76,80
2.76,78
2.76,77
2.76,76
2.76,75
2.77,74
2.77,74
2.77,77
2.77,76
2.77,74
2.77,72
2.78,79
2.78,77
2.78,76
2.78,74
2.78,72
2.78,72
2.78,70
2.79,69
2.79,68
2.79,69
2.79,70
2.79,72
2.79,72
2.8,74
2.8,74
2.8,72
2.8,74
2.8,74
2.8,76
2.8,77
2.81,77
2.81,80
2.81,79
2.81,80
2.81,81
2.81,81
2.81,80
2.82,79
2.82,78
2.82,76
2.82,79
2.82,81
2.83,80
2.83,80
2.83,80
2.83,82
2.83,82
2.83,82
2.83,80
2.84,78
2.84,75
2.84,75
2.84,75
2.84,75
2.84,73
2.84,71
2.85,70
2.85,69
2.85,69
2.85,68
2.85,68
2.85,69
2.86,69
2.86,69
2.86,68
2.86,66
2.86,64
2.86,63
2.87,61
2.87,60
2.87,63
2.87,64
2.87,65
2.87,65
2.87,64
2.88,63
2.88,64
2.88,66
2.88,66
2.88,66
2.88,64
2.88,63
2.89,62
2.89,61
2.89,63
2.89,63
2.89,62
2.89,61
2.9,59
2.9,59
2.9,59
2.9,58
2.9,57
2.9,58
2.91,57
2.91,57
2.91,57
2.91,55
2.91,56
2.91,55
2.91,55
2.92,55
2.92,54
2.92,53
2.92,55
2.92,54
2.92,52
2.93,51
2.93,51
2.93,53
2.93,53
2.93,54
2.93,53
2.93,52
2.94,51
2.94,50
2.94,51
2.94,51
2.94,50
2.94,49
2.95,49
2.95,49
2.95,50
2.95,50
2.95,49
2.95,48
2.95,48
2.96,48
2.96,49
2.96,48
2.96,48
2.96,48
2.96,48
2.97,48
2.97,47
2.97,46
2.97,47
2.97,46
2.97,47
2.97,46
2.98,45
2.98,45
2.98,46
2.98,45
2.98,45
2.98,45
2.98,46
2.99,46
2.99,48
2.99,49
2.99,48
2.99,47
3.0,49
3.0,48
3.0,49
3.0,48
3.0,47
3.0,47
3.0,46
3.01,49
3.01,51
3.01,52
3.01,51
3.01,52
3.01,53
3.01,55
3.02,55
3.02,54
3.02,53
3.02,52
3.02,54
3.02,54
3.03,54
3.03,53
3.03,53
3.03,53
3.03,53
3.03,52
3.04,53
3.04,52
3.04,51
3.04,52
3.04,51
3.04,50
3.04,50
3.05,51
3.05,51
3.05,52
3.05,52
3.05,51
3.05,50
3.05,49
3.06,50
3.06,51
3.06,50
3.06,50
3.06,50
3.06,51
3.07,51
3.07,50
3.07,49
3.07,49
3.07,49
3.07,49
3.08,49
3.08,47
3.08,48
3.08,49
3.08,50
3.08,50
3.08,50
3.09,49
3.09,48
3.09,48
3.09,50
3.09,49
3.09,48
3.09,49
3.1,50
3.1,53
3.1,55
3.1,54
3.1,54
3.1,53
3.11,53
3.11,54
3.11,54
3.11,53
3.11,54
3.11,54
3.12,54
3.12,54
3.12,52
3.12,53
3.12,53
3.12,52
3.12,51
3.13,51
3.13,50
3.13,51
3.13,51
3.13,52
3.13,52
3.14,51
3.14,50
3.14,49
3.14,50
3.14,49
3.14,48
3.14,48
3.15,49
3.15,51
3.15,52
3.15,51
3.15,50
3.15,50
3.15,49
3.16,49
3.16,49
3.16,47
3.16,47
3.16,49
3.16,51
3.17,52
3.17,51
3.17,50
3.17,49
3.17,50
3.17,50
3.18,49
3.18,48
3.18,49
3.18,48
3.18,48
3.18,47
3.18,47
3.19,46
3.19,46
3.19,48
3.19,48
3.19,47
3.19,50
3.2,53
3.2,55
3.2,56
3.2,55
3.2,55
3.2,53
3.21,53
3.21,53
3.21,54
3.21,53
3.21,52
3.21,52
3.21,52
3.22,53
3.22,52
3.22,51
3.22,52
3.22,51
3.22,50
3.22,49
3.23,48
3.23,49
3.23,51
3.23,52
3.23,52
3.23,52
3.24,50
3.24,50
3.24,49
3.24,50
3.24,50
3.24,48
3.25,50
3.25,51
3.25,54
3.25,55
3.25,54
3.25,53
3.25,52
3.26,51
3.26,51
3.26,50
3.26,49
3.26,50
3.26,51
3.27,53
3.27,55
3.27,55
3.27,55
3.27,54
3.27,55
3.27,55
3.28,54
3.28,53
3.28,54
3.28,54
3.28,54
3.28,53
3.28,52
3.29,51
3.29,50
3.29,49
3.29,47
3.29,47
3.29,50
3.3,52
3.3,53
3.3,54
3.3,53
3.3,52
3.3,51
3.31,50
3.31,50
3.31,49
3.31,48
3.31,49
3.31,49
3.31,50
3.32,50
3.32,49
3.32,48
3.32,47
3.32,48
3.32,48
3.33,47
3.33,47
3.33,48
3.33,48
3.33,50
3.33,52
3.34,51
3.34,52
3.34,52
3.34,51
3.34,51
3.34,50
3.34,50
3.35,51
3.35,51
3.35,52
3.35,51
3.35,51
3.35,49
3.35,49
3.36,49
3.36,49
3.36,48
3.36,50
3.36,53
3.36,55
3.37,56
3.37,55
3.37,54
3.37,53
3.37,53
3.37,54
3.38,56
3.38,56
3.38,56
3.38,57
3.38,61
3.38,63
3.38,62
3.39,62
3.39,63
3.39,62
3.39,61
3.39,60
3.39,58
3.4,60
3.4,60
3.4,60
3.4,60
3.4,59
3.4,58
3.4,57
3.41,56
3.41,55
3.41,54
3.41,53
3.41,54
3.41,54
3.42,55
3.42,55
3.42,54
3.42,53
3.42,52
3.42,53
3.43,52
3.43,52
3.43,51
3.43,52
3.43,51
3.43,55
3.43,56
3.44,55
3.44,56
3.44,55
3.44,56
3.44,56
3.44,54
3.44,56
3.45,60
3.45,62
3.45,63
3.45,62
3.45,60
3.45,59
3.46,58
3.46,58
3.46,57
3.46,56
3.46,56
3.46,56
3.47,56
3.47,56
3.47,56
3.47,55
3.47,54
3.47,54
3.47,53
3.48,52
3.48,53
3.48,55
3.48,56
3.48,57
3.48,57
3.48,56
3.49,54
3.49,54
3.49,55
3.49,55
3.49,53
3.49,53
3.5,54
3.5,57
3.5,63
3.5,64
3.5,63
3.5,64
3.51,63
3.51,63
3.51,62
3.51,61
3.51,60
3.51,59
3.51,58
3.52,57
3.52,58
3.52,57
3.52,56
3.52,55
3.52,54
3.53,57
3.53,60
3.53,64
3.53,66
3.53,68
3.53,69
3.53,68
3.54,67
3.54,66
3.54,65
3.54,63
3.54,62
3.54,61
3.55,62
3.55,61
3.55,62
3.55,62
3.55,61
3.55,60
3.55,60
3.56,59
3.56,58
3.56,56
3.56,59
3.56,62
3.56,65
3.57,67
3.57,68
3.57,66
3.57,66
3.57,65
3.57,64
3.57,63
3.58,61
3.58,61
3.58,61
3.58,60
3.58,61
3.58,61
3.59,62
3.59,65
3.59,64
3.59,63
3.59,61
3.59,61
3.6,63
3.6,63
3.6,64
3.6,65
3.6,63
3.6,62
3.6,61
3.61,61
3.61,61
3.61,60
3.61,58
3.61,58
3.61,60
3.61,63
3.62,64
3.62,62
3.62,63
3.62,63
3.62,62
3.62,60
3.63,59
3.63,58
3.63,59
3.63,58
3.63,57
3.63,56
3.64,55
3.64,55
3.64,56
3.64,54
3.64,53
3.64,52
3.64,53
3.65,55
3.65,57
3.65,59
3.65,58
3.65,56
3.65,55
3.66,54
3.66,55
3.66,54
3.66,53
3.66,53
3.66,53
3.66,53
3.67,52
3.67,51
3.67,50
3.67,51
3.67,50
3.67,50
3.68,50
3.68,49
3.68,50
3.68,52
3.68,53
3.68,54
3.68,52
3.69,52
3.69,50
3.69,50
3.69,50
3.69,48
3.69,49
3.7,51
3.7,52
3.7,55
3.7,55
3.7,54
3.7,53
3.7,51
3.71,53
3.71,54
3.71,54
3.71,52
3.71,51
3.71,50
3.72,49
3.72,48
3.72,48
3.72,48
3.72,47
3.72,47
3.73,47
3.73,48
3.73,50
3.73,51
3.73,52
3.73,53
3.73,52
3.74,52
3.74,50
3.74,52
3.74,54
3.74,54
3.74,53
3.74,56
3.75,58
3.75,60
3.75,61
3.75,59
3.75,58
3.76,57
3.76,59
3.76,60
3.76,60
3.76,59
3.76,58
3.76,57
3.77,59
3.77,63
3.77,62
3.77,62
3.77,61
3.77,61
3.77,62
3.78,62
3.78,60
3.78,60
3.78,59
3.78,61
3.78,60
3.79,60
3.79,59
3.79,57
3.79,56
3.79,55
3.79,54
3.79,56
3.8,56
3.8,57
3.8,58
3.8,56
3.8,55
3.8,54
3.81,54
3.81,56
3.81,59
3.81,59
3.81,57
3.81,58
3.81,62
3.82,67
3.82,66
3.82,67
3.82,66
3.82,66
3.82,65
3.83,65
3.83,64
3.83,63
3.83,63
3.83,62
3.83,62
3.83,64
3.84,63
3.84,63
3.84,62
3.84,60
3.84,59
3.84,60
3.85,62
3.85,62
3.85,64
3.85,63
3.85,62
3.85,60
3.86,59
3.86,62
3.86,63
3.86,63
3.86,61
3.86,62
3.86,61
3.87,62
3.87,63
3.87,61
3.87,61
3.87,60
3.87,60
3.87,59
3.88,58
3.88,56
3.88,56
3.88,56
3.88,57
3.88,57
3.89,55
3.89,54
3.89,56
3.89,58
3.89,57
3.89,57
3.9,59
3.9,60
3.9,62
3.9,64
3.9,62
3.9,61
3.9,59
3.91,61
3.91,63
3.91,64
3.91,63
3.91,62
3.91,60
3.92,59
3.92,59
3.92,58
3.92,61
3.92,64
3.92,63
3.92,61
3.93,60
3.93,59
3.93,59
3.93,59
3.93,59
3.93,59
3.94,61
3.94,61
3.94,63
3.94,64
3.94,63
3.94,62
3.94,64
3.95,67
3.95,70
3.95,70
3.95,69
3.95,68
3.95,66
3.96,65
3.96,65
3.96,66
3.96,66
3.96,64
3.96,63
3.96,65
3.97,69
3.97,68
3.97,67
3.97,66
3.97,66
3.97,66
3.98,66
3.98,65
3.98,63
3.98,62
3.98,62
3.98,61
3.98,60
3.99,62
3.99,62
3.99,62
3.99,61
3.99,61
3.99,60
4.0,58
4.0,57
4.0,56
4.0,55
4.0,54
4.0,53
4.0,52
4.01,52
4.01,50
4.01,49
4.01,48
4.01,49
4.01,48
4.02,49
4.02,48
4.02,49
4.02,48
4.02,48
4.02,47
4.03,46
4.03,45
4.03,44
4.03,43
4.03,42
4.03,41
4.03,41
4.03,43
4.04,44
4.04,44
4.04,45
4.04,44
4.04,44
4.04,44
4.05,44
4.05,44
4.05,43
4.05,44
4.05,44
4.05,43
4.06,46
4.06,46
4.06,45
4.06,44
4.06,47
4.06,49
4.07,50
4.07,50
4.07,49
4.07,49
4.07,48
4.07,48
4.07,47
4.07,46
4.08,45
4.08,45
4.08,44
4.08,43
4.08,43
4.08,44
4.09,44
4.09,43
4.09,43
4.09,42
4.09,41
4.09,41
4.1,41
4.1,40
4.1,42
4.1,42
4.1,42
4.1,41
4.11,41
4.11,42
4.11,42
4.11,41
4.11,42
4.11,42
4.11,41
4.12,41
4.12,41
4.12,41
4.12,43
4.12,43
4.12,43
4.13,44
4.13,43
4.13,43
4.13,42
4.13,43
4.13,44
4.13,44
4.14,45
4.14,45
4.14,47
4.14,49
4.14,50
4.14,49
4.15,51
4.15,53
4.15,56
4.15,58
4.15,57
4.15,56
4.15,55
4.16,55
4.16,56
4.16,56
4.16,54
4.16,54
4.16,53
4.17,51
4.17,50
4.17,49
4.17,50
4.17,50
4.17,51
4.17,51
4.18,51
4.18,50
4.18,50
4.18,49
4.18,48
4.18,48
4.19,47
4.19,49
4.19,49
4.19,49
4.19,50
4.19,50
4.2,49
4.2,48
4.2,47
4.2,49
4.2,48
4.2,46
4.2,48
4.21,48
4.21,48
4.21,48
4.21,48
4.21,47
4.21,46
4.21,46
4.22,50
4.22,49
4.22,48
4.22,47
4.22,48
4.22,50
4.23,51
4.23,51
4.23,53
4.23,54
4.23,56
4.23,55
4.24,55
4.24,55
4.24,55
4.24,59
4.24,59
4.24,59
4.24,61
4.25,63
4.25,63
4.25,62
4.25,62
4.25,60
4.25,59
4.26,60
4.26,61
4.26,61
4.26,60
4.26,62
4.26,63
4.26,62
4.26,61
4.27,60
4.27,62
4.27,61
4.27,60
4.27,59
4.28,58
4.28,56
4.28,55
4.28,55
4.28,55
4.28,54
4.28,53
4.29,52
4.29,51
4.29,50
4.29,51
4.29,51
4.29,50
4.3,52
4.3,52
4.3,51
4.3,51
4.3,50
4.3,49
4.3,48
4.31,48
4.31,48
4.31,47
4.31,46
4.31,46
4.31,45
4.32,46
4.32,45
4.32,44
4.32,44
4.32,43
4.32,45
4.32,46
4.33,45
4.33,45
4.33,46
4.33,47
4.33,48
4.33,47
4.34,46
4.34,45
4.34,45
4.34,46
4.34,48
4.34,48
4.34,47
4.35,46
4.35,46
4.35,48
4.35,47
4.35,48
4.35,49
4.36,49
4.36,50
4.36,51
4.36,50
4.36,50
4.36,50
4.36,50
4.37,49
4.37,50
4.37,52
4.37,52
4.37,51
4.37,50
4.38,50
4.38,49
4.38,50
4.38,50
4.38,50
4.38,49
4.39,50
4.39,50
4.39,48
4.39,48
4.39,47
4.39,46
4.4,46
4.4,47
4.4,46
4.4,46
4.4,46
4.4,46
4.4,45
4.41,45
4.41,44
4.41,45
4.41,45
4.41,44
4.41,44
4.41,45
4.42,46
4.42,45
4.42,47
4.42,47
4.42,48
4.42,48
4.43,48
4.43,47
4.43,47
4.43,47
4.43,46
4.43,46
4.43,47
4.44,47
4.44,46
4.44,47
4.44,48
4.44,48
4.44,49
4.45,50
4.45,50
4.45,50
4.45,50
4.45,50
4.45,49
4.46,48
4.46,50
4.46,51
4.46,51
4.46,50
4.46,50
4.46,50
4.47,51
4.47,51
4.47,52
4.47,51
4.47,51
4.47,50
4.47,50
4.48,48
4.48,48
4.48,49
4.48,48
4.48,48
4.48,47
4.49,47
4.49,47
4.49,46
4.49,46
4.49,47
4.49,48
4.5,47
4.5,46
4.5,45
4.5,46
4.5,46
4.5,45
4.5,45
4.51,45
4.51,48
4.51,50
4.51,50
4.51,51
4.51,52
4.51,52
4.52,52
4.52,50
4.52,49
4.52,48
4.52,50
4.53,51
4.53,52
4.53,51
4.53,52
4.53,52
4.53,52
4.53,53
4.53,51
4.54,50
4.54,50
4.54,50
4.54,49
4.54,48
4.54,48
4.55,49
4.55,48
4.55,47
4.55,47
4.55,49
4.55,48
4.55,47
4.56,46
4.56,46
4.56,46
4.56,46
4.56,46
4.56,46
4.57,45
4.57,44
4.57,44
4.57,43
4.57,43
4.57,45
4.58,47
4.58,46
4.58,46
4.58,44
4.58,44
4.58,44
4.59,43
4.59,44
4.59,45
4.59,45
4.59,46
4.59,45
4.59,44
4.59,45
4.6,45
4.6,45
4.6,44
4.6,44
4.6,44
4.6,43
4.61,44
4.61,43
4.61,42
4.61,41
4.61,40
4.61,39
4.62,41
4.62,40
4.62,39
4.62,39
4.62,39
4.62,42
4.63,42
4.63,41
4.63,43
4.63,44
4.63,44
4.63,45
4.63,45
4.64,45
4.64,43
4.64,45
4.64,48
4.64,49
4.64,49
4.65,48
4.65,47
4.65,48
4.65,50
4.65,49
4.65,49
4.66,49
4.66,50
4.66,52
4.66,52
4.66,51
4.66,54
4.66,55
4.67,56
4.67,55
4.67,56
4.67,55
4.67,55
4.67,56
4.67,54
4.68,53
4.68,52
4.68,52
4.68,52
4.68,53
4.68,52
4.69,51
4.69,50
4.69,49
4.69,50
4.69,51
4.69,51
4.7,50
4.7,49
4.7,48
4.7,47
4.7,47
4.7,46
4.7,49
4.71,50
4.71,49
4.71,49
4.71,49
4.71,48
4.71,48
4.72,46
4.72,45
4.72,44
4.72,44
4.72,44
4.72,44
4.72,45
4.73,46
4.73,46
4.73,46
4.73,45
4.73,44
4.73,43
4.73,43
4.74,43
4.74,44
4.74,44
4.74,44
4.74,45
4.74,44
4.75,46
4.75,45
4.75,45
4.75,45
4.75,46
4.75,46
4.76,44
4.76,46
4.76,46
4.76,45
4.76,45
4.76,44
4.76,44
4.76,45
4.77,44
4.77,45
4.77,44
4.77,44
4.77,44
4.78,45
4.78,45
4.78,45
4.78,45
4.78,45
4.78,44
4.78,44
4.79,45
4.79,44
4.79,45
4.79,44
4.79,43
4.79,43
4.8,44
4.8,44
4.8,45
4.8,45
4.8,45
4.8,44
4.8,44
4.81,46
4.81,48
4.81,47
4.81,46
4.81,47
4.81,47
4.82,46
4.82,46
4.82,46
4.82,46
4.82,45
4.82,45
4.82,45
4.83,45
4.83,45
4.83,46
4.83,46
4.83,48
4.83,47
4.84,47
4.84,47
4.84,46
4.84,48
4.84,49
4.84,51
4.84,50
4.85,49
4.85,51
4.85,53
4.85,53
4.85,53
4.85,52
4.86,51
4.86,52
4.86,55
4.86,55
4.86,53
4.86,53
4.86,54
4.87,56
4.87,55
4.87,54
4.87,53
4.87,54
4.87,56
4.88,59
4.88,57
4.88,57
4.88,56
4.88,56
4.88,56
4.89,55
4.89,54
4.89,52
4.89,52
4.89,52
4.89,51
4.89,50
4.9,51
4.9,50
4.9,50
4.9,49
4.9,51
4.9,50
4.9,49
4.91,49
4.91,49
4.91,48
4.91,47
4.91,46
4.92,45
4.92,45
4.92,44
4.92,44
4.92,45
4.92,45
4.92,45
4.93,45
4.93,45
4.93,44
4.93,43
4.93,43
4.93,43
4.93,42
4.94,41
4.94,42
4.94,42
4.94,44
4.94,45
4.94,43
4.95,44
4.95,43
4.95,43
4.95,44
4.95,42
4.95,42
4.96,41
4.96,43
4.96,46
4.96,46
4.96,46
4.96,47
4.96,47
4.97,46
4.97,46
4.97,45
4.97,45
4.97,45
4.97,45
4.98,46
4.98,46
4.98,46
4.98,47
4.98,46
4.98,47
4.98,46
4.99,47
4.99,46
4.99,46
4.99,46
4.99,47
4.99,48
5.0,47
5.0,46
5.0,45
5.0,45
5.0,45
5.0,44
5.0,44
5.01,43
5.01,44
5.01,46
5.01,45
5.01,44
5.01,43
5.01,43
5.02,44
5.02,43
5.02,42
5.02,41
5.02,42
5.02,45
5.03,48
5.03,49
5.03,49
5.03,50
5.03,54
5.03,56
5.03,55
5.04,53
5.04,52
5.04,53
5.04,54
5.04,55
5.04,55
5.05,54
5.05,53
5.05,54
5.05,54
5.05,53
5.05,52
5.05,51
5.06,52
5.06,53
5.06,54
5.06,53
5.06,53
5.06,53
5.07,55
5.07,55
5.07,54
5.07,53
5.07,52
5.07,53
5.07,54
5.08,53
5.08,52
5.08,52
5.08,51
5.08,51
5.08,51
5.09,52
5.09,51
5.09,50
5.09,50
5.09,49
5.09,48
5.09,48
5.1,49
5.1,50
5.1,50
5.1,50
5.1,50
5.1,49
5.11,50
5.11,54
5.11,54
5.11,53
5.11,54
5.11,56
5.11,57
5.12,57
5.12,56
5.12,55
5.12,54
5.12,54
5.13,56
5.13,56
5.13,56
5.13,55
5.13,56
5.13,57
5.13,56
5.14,55
5.14,54
5.14,53
5.14,54
5.14,55
5.14,55
5.14,54
5.15,54
5.15,54
5.15,55
5.15,54
5.15,52
5.15,51
5.16,51
5.16,54
5.16,56
5.16,55
5.16,57
5.16,59
5.17,59
5.17,60
5.17,59
5.17,59
5.17,57
5.17,57
5.17,59
5.18,60
5.18,59
5.18,59
5.18,60
5.18,61
5.18,60
5.19,60
5.19,59
5.19,57
5.19,58
5.19,58
5.19,56
5.19,55
5.2,55
5.2,54
5.2,56
5.2,55
5.2,54
5.2,53
5.2,52
5.21,53
5.21,54
5.21,53
5.21,52
5.21,52
5.21,51
5.22,50
5.22,49
5.22,50
5.22,49
5.22,49
5.22,48
5.23,47
5.23,47
5.23,46
5.23,45
5.23,44
5.23,45
5.23,45
5.24,44
5.24,43
5.24,43
5.24,44
5.24,45
5.24,45
5.25,45
5.25,45
5.25,47
5.25,49
5.25,48
5.25,47
5.26,46
5.26,47
5.26,49
5.26,49
5.26,48
5.26,48
5.26,48
5.26,47
5.27,47
5.27,47
5.27,47
5.27,46
5.27,47
5.27,48
5.28,49
5.28,48
5.28,51
5.28,53
5.28,53
5.28,53
5.28,52
5.29,52
5.29,51
5.29,53
5.29,54
5.29,55
5.3,55
5.3,55
5.3,57
5.3,59
5.3,57
5.3,58
5.3,56
5.3,56
5.31,56
5.31,57
5.31,56
5.31,55
5.31,54
5.32,53
5.32,53
5.32,52
5.32,51
5.32,49
5.32,50
5.32,52
5.32,52
5.33,52
5.33,54
5.33,54
5.33,54
5.33,53
5.34,53
5.34,53
5.34,52
5.34,52
5.34,55
5.34,56
5.34,56
5.35,57
5.35,60
5.35,61
5.35,61
5.35,60
5.35,59
5.36,57
5.36,59
5.36,61
5.36,61
5.36,60
5.36,59
5.36,59
5.36,60
5.37,61
5.37,59
5.37,58
5.37,57
5.37,59
5.37,60
5.38,60
5.38,59
5.38,57
5.38,57
5.38,59
5.39,59
5.39,58
5.39,57
5.39,56
5.39,59
5.39,60
5.39,59
5.4,60
5.4,61
5.4,60
5.4,60
5.4,58
5.4,57
5.4,56
5.41,56
5.41,58
5.41,60
5.41,59
5.41,59
5.41,58
5.42,60
5.42,60
5.42,59
5.42,58
5.42,56
5.42,59
5.43,60
5.43,61
5.43,59
5.43,61
5.43,61
5.43,61
5.43,60
5.44,60
5.44,59
5.44,58
5.44,59
5.44,58
5.44,56
5.44,55
5.45,53
5.45,54
5.45,57
5.45,56
