Time_s,ADC
0.0,25
0.0,26
0.0,25
0.0,26
0.01,27
0.01,26
0.01,26
0.01,25
0.01,25
0.01,25
0.01,25
0.02,25
0.02,24
0.02,24
0.02,25
0.02,25
0.02,24
0.03,24
0.03,24
0.03,24
0.03,23
0.03,24
0.03,26
0.03,26
0.04,25
0.04,26
0.04,26
0.04,26
0.04,25
0.04,25
0.05,25
0.05,25
0.05,25
0.05,25
0.05,25
0.05,25
0.05,26
0.06,26
0.06,26
0.06,25
0.06,25
0.06,25
0.06,24
0.07,25
0.07,25
0.07,25
0.07,25
0.07,26
0.07,25
0.07,25
0.08,25
0.08,25
0.08,24
0.08,24
0.08,23
0.08,24
0.09,23
0.09,23
0.09,23
0.09,23
0.09,23
0.09,22
0.1,22
0.1,22
0.1,22
0.1,22
0.1,23
0.1,22
0.1,23
0.11,24
0.11,24
0.11,24
0.11,23
0.11,23
0.11,23
0.11,22
0.12,23
0.12,23
0.12,23
0.12,23
0.12,24
0.12,24
0.12,23
0.13,23
0.13,23
0.13,22
0.13,22
0.13,23
0.13,23
0.14,22
0.14,23
0.14,23
0.14,23
0.14,23
0.14,22
0.14,23
0.15,22
0.15,22
0.15,22
0.15,22
0.15,22
0.15,22
0.16,22
0.16,22
0.16,21
0.16,21
0.16,21
0.16,21
0.17,21
0.17,21
0.17,21
0.17,22
0.17,23
0.17,22
0.17,22
0.18,22
0.18,22
0.18,22
0.18,21
0.18,22
0.18,22
0.19,22
0.19,23
0.19,24
0.19,24
0.19,24
0.19,23
0.19,23
0.2,23
0.2,22
0.2,23
0.2,22
0.2,22
0.2,22
0.2,23
0.21,24
0.21,24
0.21,25
0.21,25
0.21,25
0.22,24
0.22,25
0.22,25
0.22,25
0.22,26
0.22,27
0.22,27
0.22,26
0.23,27
0.23,27
0.23,26
0.23,26
0.23,26
0.23,27
0.24,26
0.24,27
0.24,27
0.24,27
0.24,26
0.24,26
0.25,26
0.25,25
0.25,25
0.25,25
0.25,25
0.25,25
0.25,25
0.26,26
0.26,25
0.26,25
0.26,25
0.26,25
0.26,24
0.26,24
0.27,24
0.27,25
0.27,25
0.27,25
0.27,25
0.27,25
0.28,24
0.28,24
0.28,23
0.28,23
0.28,23
0.28,25
0.28,24
0.29,24
0.29,25
0.29,25
0.29,25
0.29,25
0.29,24
0.3,24
0.3,24
0.3,24
0.3,23
0.3,23
0.3,24
0.31,25
0.31,25
0.31,25
0.31,27
0.31,27
0.31,26
0.31,26
0.32,26
0.32,26
0.32,26
0.32,26
0.32,26
0.32,26
0.32,25
0.33,25
0.33,25
0.33,25
0.33,24
0.33,25
0.33,25
0.34,25
0.34,24
0.34,25
0.34,25
0.34,24
0.34,24
0.35,23
0.35,23
0.35,23
0.35,23
0.35,23
0.35,23
0.35,23
0.36,23
0.36,23
0.36,23
0.36,23
0.36,22
0.36,22
0.37,22
0.37,22
0.37,22
0.37,22
0.37,22
0.37,22
0.37,22
0.38,22
0.38,21
0.38,21
0.38,21
0.38,21
0.38,21
0.39,21
0.39,21
0.39,22
0.39,21
0.39,21
0.39,21
0.4,21
0.4,21
0.4,21
0.4,21
0.4,21
0.4,21
0.4,21
0.41,22
0.41,22
0.41,21
0.41,21
0.41,21
0.41,21
0.41,21
0.42,21
0.42,21
0.42,21
0.42,22
0.42,22
0.42,22
0.43,21
0.43,21
0.43,21
0.43,21
0.43,20
0.43,21
0.44,21
0.44,21
0.44,22
0.44,22
0.44,21
0.44,21
0.44,21
0.45,21
0.45,21
0.45,20
0.45,21
0.45,21
0.45,21
0.45,22
0.46,22
0.46,22
0.46,22
0.46,22
0.46,21
0.46,21
0.46,22
0.47,23
0.47,23
0.47,24
0.47,25
0.47,24
0.47,24
0.48,24
0.48,24
0.48,24
0.48,24
0.48,24
0.48,24
0.49,24
0.49,24
0.49,24
0.49,24
0.49,24
0.49,23
0.5,23
0.5,23
0.5,23
0.5,23
0.5,23
0.5,23
0.5,22
0.5,23
0.51,23
0.51,22
0.51,22
0.51,22
0.51,21
0.52,21
0.52,23
0.52,22
0.52,22
0.52,23
0.52,23
0.52,22
0.53,22
0.53,22
0.53,22
0.53,22
0.53,21
0.53,22
0.54,22
0.54,21
0.54,22
0.54,22
0.54,22
0.54,21
0.54,21
0.55,21
0.55,21
0.55,21
0.55,22
0.55,22
0.55,22
0.56,22
0.56,21
0.56,21
0.56,22
0.56,22
0.56,21
0.56,21
0.57,21
0.57,22
0.57,22
0.57,23
0.57,24
0.57,24
0.57,23
0.58,24
0.58,24
0.58,24
0.58,24
0.58,24
0.58,24
0.59,23
0.59,24
0.59,24
0.59,24
0.59,23
0.59,23
0.6,23
0.6,22
0.6,22
0.6,23
0.6,23
0.6,23
0.61,23
0.61,23
0.61,23
0.61,23
0.61,23
0.61,23
0.61,22
0.61,22
0.62,23
0.62,22
0.62,22
0.62,23
0.62,24
0.62,23
0.63,23
0.63,23
0.63,22
0.63,22
0.63,22
0.63,23
0.63,23
0.64,23
0.64,24
0.64,24
0.64,23
0.64,23
0.65,23
0.65,22
0.65,22
0.65,22
0.65,22
0.65,22
0.65,22
0.66,23
0.66,23
0.66,23
0.66,23
0.66,23
0.66,22
0.67,22
0.67,22
0.67,22
0.67,21
0.67,22
0.67,23
0.67,23
0.68,23
0.68,24
0.68,24
0.68,24
0.68,23
0.68,24
0.69,24
0.69,24
0.69,24
0.69,24
0.69,24
0.69,24
0.69,24
0.7,23
0.7,23
0.7,23
0.7,23
0.7,23
0.7,23
0.7,24
0.71,24
0.71,24
0.71,23
0.71,23
0.71,23
0.71,23
0.71,23
0.72,23
0.72,22
0.72,22
0.72,23
0.72,23
0.72,23
0.73,22
0.73,22
0.73,22
0.73,22
0.73,22
0.74,22
0.74,22
0.74,22
0.74,23
0.74,22
0.74,22
0.74,22
0.75,22
0.75,22
0.75,21
0.75,22
0.75,23
0.75,23
0.75,22
0.76,22
0.76,22
0.76,22
0.76,22
0.76,22
0.76,22
0.76,22
0.77,22
0.77,22
0.77,22
0.77,22
0.77,22
0.77,22
0.78,21
0.78,21
0.78,21
0.78,21
0.78,21
0.78,21
0.79,21
0.79,21
0.79,21
0.79,22
0.79,22
0.79,21
0.79,21
0.8,21
0.8,21
0.8,21
0.8,21
0.8,21
0.8,21
0.81,22
0.81,22
0.81,22
0.81,22
0.81,21
0.81,21
0.81,21
0.82,22
0.82,23
0.82,22
0.82,22
0.82,23
0.82,23
0.83,24
0.83,23
0.83,23
0.83,23
0.83,23
0.83,24
0.83,24
0.84,24
0.84,24
0.84,24
0.84,24
0.84,24
0.84,24
0.85,24
0.85,23
0.85,22
0.85,23
0.85,23
0.85,23
0.86,23
0.86,24
0.86,24
0.86,23
0.86,23
0.86,23
0.86,23
0.86,23
0.87,22
0.87,22
0.87,22
0.87,22
0.87,23
0.88,22
0.88,22
0.88,22
0.88,21
0.88,21
0.88,21
0.88,21
0.88,21
0.89,21
0.89,22
0.89,23
0.89,22
0.89,22
0.89,22
0.9,22
0.9,22
0.9,22
0.9,22
0.9,22
0.9,22
0.91,23
0.91,23
0.91,23
0.91,23
0.91,22
0.91,22
0.91,22
0.92,22
0.92,22
0.92,22
0.92,22
0.92,22
0.92,23
0.93,23
0.93,23
0.93,23
0.93,22
0.93,22
0.93,22
0.93,23
0.94,22
0.94,22
0.94,22
0.94,22
0.94,22
0.94,22
0.95,22
0.95,22
0.95,21
0.95,22
0.95,22
0.95,22
0.95,22
0.96,22
0.96,22
0.96,22
0.96,22
0.96,22
0.96,21
0.96,21
0.97,22
0.97,22
0.97,21
0.97,22
0.97,22
0.97,22
0.98,21
0.98,21
0.98,21
0.98,21
0.98,21
0.98,21
0.99,20
0.99,20
0.99,21
0.99,21
0.99,21
0.99,21
1.0,20
1.0,20
1.0,20
1.0,21
1.0,21
1.0,22
1.0,21
1.01,22
1.01,22
1.01,21
1.01,21
1.01,21
1.01,21
1.01,21
1.02,21
1.02,21
1.02,21
1.02,21
1.02,22
1.02,22
1.03,21
1.03,21
1.03,21
1.03,21
1.03,20
1.03,21
1.03,21
1.04,21
1.04,21
1.04,22
1.04,22
1.04,22
1.04,22
1.05,22
1.05,22
1.05,23
1.05,22
1.05,22
1.05,22
1.05,22
1.06,22
1.06,22
1.06,22
1.06,22
1.06,22
1.06,21
1.07,21
1.07,21
1.07,21
1.07,21
1.07,22
1.07,22
1.08,22
1.08,21
1.08,21
1.08,21
1.08,20
1.08,21
1.08,21
1.09,21
1.09,22
1.09,22
1.09,22
1.09,22
1.09,22
1.1,22
1.1,21
1.1,21
1.1,21
1.1,22
1.1,21
1.1,22
1.11,22
1.11,22
1.11,22
1.11,21
1.11,21
1.11,21
1.12,21
1.12,20
1.12,20
1.12,20
1.12,20
1.12,21
1.12,21
1.13,21
1.13,21
1.13,21
1.13,20
1.13,20
1.13,20
1.13,20
1.14,20
1.14,21
1.14,21
1.14,21
1.14,21
1.14,21
1.15,21
1.15,20
1.15,20
1.15,21
1.15,21
1.15,20
1.16,20
1.16,20
1.16,20
1.16,19
1.16,20
1.16,19
1.16,19
1.17,20
1.17,20
1.17,20
1.17,20
1.17,21
1.17,20
1.18,20
1.18,20
1.18,20
1.18,20
1.18,19
1.18,20
1.18,20
1.19,20
1.19,21
1.19,21
1.19,21
1.19,21
1.2,21
1.2,21
1.2,20
1.2,20
1.2,21
1.2,21
1.2,21
1.21,20
1.21,20
1.21,20
1.21,20
1.21,20
1.21,20
1.21,20
1.22,19
1.22,20
1.22,21
1.22,20
1.22,21
1.22,21
1.23,21
1.23,21
1.23,22
1.23,21
1.23,21
1.23,21
1.23,21
1.24,21
1.24,22
1.24,23
1.24,23
1.24,23
1.24,23
1.25,23
1.25,23
1.25,23
1.25,23
1.25,22
1.25,22
1.25,22
1.26,23
1.26,23
1.26,23
1.26,23
1.26,22
1.26,22
1.26,22
1.27,22
1.27,22
1.27,22
1.27,22
1.27,23
1.27,23
1.28,22
1.28,22
1.28,22
1.28,22
1.28,22
1.28,22
1.29,22
1.29,22
1.29,22
1.29,22
1.29,22
1.29,22
1.29,22
1.3,22
1.3,21
1.3,22
1.3,22
1.3,22
1.3,21
1.31,22
1.31,22
1.31,22
1.31,22
1.31,22
1.31,22
1.32,21
1.32,22
1.32,23
1.32,23
1.32,24
1.32,23
1.33,23
1.33,23
1.33,23
1.33,22
1.33,22
1.33,22
1.33,22
1.34,22
1.34,24
1.34,27
1.34,30
1.34,32
1.34,31
1.34,32
1.35,35
1.35,36
1.35,37
1.35,36
1.35,35
1.35,35
1.36,34
1.36,34
1.36,35
1.36,46
1.36,70
1.36,92
1.36,107
1.37,113
1.37,111
1.37,119
1.37,137
1.37,148
1.37,157
1.38,161
1.38,162
1.38,160
1.38,157
1.38,162
1.38,167
1.38,167
1.39,163
1.39,164
1.39,160
1.39,160
1.39,167
1.39,183
1.4,194
1.4,192
1.4,196
1.4,216
1.4,238
1.4,249
1.41,248
1.41,241
1.41,233
1.41,226
1.41,218
1.41,211
1.42,205
1.42,200
1.42,198
1.42,197
1.42,202
1.42,205
1.42,206
1.43,206
1.43,201
1.43,200
1.43,209
1.43,214
1.43,213
1.44,207
1.44,199
1.44,193
1.44,187
1.44,181
1.44,175
1.45,170
1.45,167
1.45,173
1.45,196
1.45,219
1.46,239
1.46,244
1.46,247
1.46,243
1.46,250
1.46,269
1.46,290
1.47,293
1.47,293
1.47,319
1.47,348
1.47,357
1.47,349
1.48,341
1.48,331
1.48,323
1.48,314
1.48,314
1.48,320
1.48,330
1.49,342
1.49,359
1.49,375
1.49,378
1.49,383
1.5,391
1.5,399
1.5,413
1.5,421
1.5,409
1.5,399
1.5,406
1.51,407
1.51,401
1.51,390
1.51,388
1.51,376
1.51,375
1.51,419
1.52,476
1.52,510
1.52,506
1.52,529
1.52,592
1.52,618
1.53,611
1.53,614
1.53,606
1.53,592
1.53,607
1.53,617
1.54,606
1.54,608
1.54,623
1.54,615
1.54,613
1.54,603
1.55,588
1.55,595
1.55,619
1.55,611
1.55,628
1.55,633
1.55,632
1.56,655
1.56,686
1.56,691
1.56,669
1.56,647
1.56,635
1.57,622
1.57,618
1.57,604
1.57,597
1.57,596
1.57,591
1.58,579
1.58,593
1.58,602
1.58,596
1.58,584
1.58,603
1.59,634
1.59,651
1.59,647
1.59,670
1.59,685
1.59,681
1.6,669
1.6,652
1.6,634
1.6,614
1.6,601
1.6,590
1.6,583
1.61,577
1.61,580
1.61,567
1.61,549
1.61,539
1.61,533
1.61,517
1.62,505
1.62,498
1.62,492
1.62,491
1.62,480
1.63,465
1.63,450
1.63,460
1.63,486
1.63,487
1.63,487
1.63,473
1.64,475
1.64,473
1.64,476
1.64,475
1.64,469
1.65,461
1.65,449
1.65,444
1.65,440
1.65,435
1.65,435
1.65,429
1.65,417
1.66,418
1.66,420
1.66,420
1.66,412
1.66,400
1.67,387
1.67,376
1.67,364
1.67,353
1.67,344
1.67,341
1.67,346
1.68,342
1.68,334
1.68,328
1.68,321
1.68,310
1.68,305
1.69,297
1.69,303
1.69,309
1.69,308
1.69,299
1.69,293
1.7,288
1.7,280
1.7,275
1.7,276
1.7,273
1.7,268
1.71,265
1.71,257
1.71,252
1.71,252
1.71,249
1.71,244
1.72,241
1.72,239
1.72,236
1.72,236
1.72,234
1.72,228
1.73,251
1.73,281
1.73,288
1.73,316
1.73,325
1.73,319
1.73,310
1.74,310
1.74,305
1.74,303
1.74,305
1.74,302
1.74,305
1.75,305
1.75,301
1.75,317
1.75,320
1.75,324
1.75,324
1.75,330
1.76,324
1.76,316
1.76,306
1.76,306
1.76,324
1.76,325
1.77,331
1.77,344
1.77,345
1.77,340
1.77,332
1.77,326
1.78,325
1.78,325
1.78,318
1.78,314
1.78,309
1.78,300
1.78,291
1.79,283
1.79,274
1.79,268
1.79,274
1.79,280
1.79,277
1.8,288
1.8,299
1.8,297
1.8,293
1.8,290
1.8,283
1.81,276
1.81,272
1.81,268
1.81,265
1.81,266
1.81,270
1.82,265
1.82,260
1.82,262
1.82,260
1.82,255
1.82,247
1.83,239
1.83,238
1.83,235
1.83,231
1.83,233
1.83,228
1.84,229
1.84,223
1.84,222
1.84,223
1.84,218
1.84,211
1.85,205
1.85,204
1.85,203
1.85,201
1.85,207
1.85,210
1.85,208
1.86,216
1.86,218
1.86,212
1.86,209
1.86,209
1.86,210
1.86,216
1.87,222
1.87,218
1.87,217
1.87,211
1.87,208
1.87,202
1.88,196
1.88,193
1.88,197
1.88,193
1.88,190
1.88,185
1.89,182
1.89,177
1.89,172
1.89,172
1.89,168
1.89,164
1.9,159
1.9,155
1.9,163
1.9,161
1.9,169
1.9,182
1.9,182
1.91,180
1.91,183
1.91,183
1.91,187
1.91,191
1.91,189
1.92,191
1.92,185
1.92,179
1.92,179
1.92,179
1.92,176
1.93,174
1.93,171
1.93,168
1.93,164
1.93,159
1.93,158
1.94,156
1.94,152
1.94,150
1.94,150
1.94,146
1.94,146
1.95,143
1.95,142
1.95,139
1.95,135
1.95,135
1.95,137
1.96,134
1.96,130
1.96,129
1.96,131
1.96,128
1.96,125
1.97,125
1.97,128
1.97,146
1.97,153
1.97,165
1.97,161
1.97,164
1.98,166
1.98,163
1.98,159
1.98,154
1.98,155
1.98,156
1.98,159
1.99,164
1.99,165
1.99,161
1.99,158
1.99,156
2.0,152
2.0,149
2.0,145
2.0,142
2.0,140
2.0,138
2.0,135
2.01,132
2.01,129
2.01,125
2.01,124
2.01,127
2.01,145
2.02,150
2.02,154
2.02,179
2.02,189
2.02,186
2.02,183
2.03,177
2.03,171
2.03,166
2.03,166
2.03,173
2.03,174
2.04,182
2.04,180
2.04,176
2.04,170
2.04,166
2.04,163
2.04,164
2.05,163
2.05,161
2.05,164
2.05,164
2.05,159
2.05,156
2.06,155
2.06,150
2.06,148
2.06,144
2.06,141
2.06,142
2.07,145
2.07,142
2.07,140
2.07,138
2.07,134
2.07,131
2.07,127
2.08,128
2.08,128
2.08,125
2.08,122
2.08,122
2.08,121
2.09,121
2.09,122
2.09,125
2.09,125
2.09,125
2.09,126
2.1,123
2.1,123
2.1,126
2.1,123
2.1,122
2.1,120
2.11,117
2.11,116
2.11,115
2.11,126
2.11,132
2.11,134
2.11,151
2.12,155
2.12,150
2.12,147
2.12,146
2.12,144
2.12,144
2.13,146
2.13,146
2.13,141
2.13,139
2.13,137
2.13,140
2.14,141
2.14,141
2.14,146
2.14,158
2.14,159
2.14,154
2.15,156
2.15,151
2.15,155
2.15,158
2.15,156
2.15,152
2.16,148
2.16,143
2.16,139
2.16,138
2.16,139
2.16,135
2.16,132
2.17,129
2.17,129
2.17,132
2.17,135
2.17,132
2.17,128
2.18,127
2.18,123
2.18,120
2.18,119
2.18,124
2.18,127
2.19,125
2.19,126
2.19,122
2.19,120
2.19,120
2.19,117
2.2,115
2.2,118
2.2,117
2.2,119
2.2,133
2.2,134
2.2,131
2.21,131
2.21,130
2.21,136
2.21,145
2.21,144
2.21,139
2.22,137
2.22,135
2.22,131
2.22,130
2.22,132
2.22,141
2.23,149
2.23,148
2.23,157
2.23,162
2.23,158
2.23,156
2.24,151
2.24,147
2.24,145
2.24,141
2.24,137
2.24,132
2.24,129
2.25,125
2.25,126
2.25,128
2.25,125
2.25,124
2.25,122
2.26,120
2.26,124
2.26,126
2.26,126
2.26,126
2.26,122
2.27,123
2.27,120
2.27,116
2.27,113
2.27,115
2.27,118
2.28,116
2.28,117
2.28,117
2.28,121
2.28,127
2.28,126
2.28,127
2.29,125
2.29,129
2.29,128
2.29,126
2.29,124
2.29,120
2.3,119
2.3,123
2.3,122
2.3,125
2.3,126
2.3,128
2.31,127
2.31,125
2.31,122
2.31,123
2.31,122
2.31,121
2.32,117
2.32,114
2.32,115
2.32,115
2.32,119
2.32,126
2.32,137
2.33,135
2.33,133
2.33,132
2.33,129
2.33,128
2.33,128
2.34,135
2.34,133
2.34,133
2.34,132
2.34,128
2.34,128
2.35,129
2.35,128
2.35,127
2.35,125
2.35,127
2.35,125
2.36,129
2.36,126
2.36,123
2.36,121
2.36,121
2.36,119
2.36,115
2.37,114
2.37,114
2.37,114
2.37,111
2.37,116
2.37,125
2.38,129
2.38,131
2.38,131
2.38,127
2.38,124
2.38,123
2.39,124
2.39,122
2.39,119
2.39,115
2.39,114
2.39,111
2.4,109
2.4,113
2.4,112
2.4,117
2.4,117
2.4,116
2.4,115
2.41,113
2.41,116
2.41,121
2.41,122
2.41,120
2.41,121
2.42,127
2.42,131
2.42,131
2.42,129
2.42,129
2.42,128
2.43,125
2.43,129
2.43,130
2.43,133
2.43,133
2.43,129
2.44,125
2.44,122
2.44,119
2.44,116
2.44,114
2.44,113
2.45,111
2.45,110
2.45,109
2.45,114
2.45,118
2.45,125
2.45,123
2.46,123
2.46,120
2.46,116
2.46,114
2.46,112
2.46,110
2.47,109
2.47,111
2.47,111
2.47,108
2.47,110
2.47,110
2.48,114
2.48,121
2.48,121
2.48,125
2.48,122
2.48,122
2.49,121
2.49,118
2.49,115
2.49,114
2.49,114
2.49,115
2.49,120
2.5,123
2.5,129
2.5,134
2.5,139
2.5,141
2.5,145
2.51,149
2.51,152
2.51,154
2.51,156
2.51,154
2.51,150
2.51,147
2.52,145
2.52,144
2.52,141
2.52,140
2.52,139
2.53,136
2.53,133
2.53,131
2.53,138
2.53,142
2.53,139
2.53,137
2.54,133
2.54,134
2.54,135
2.54,141
2.54,142
2.54,148
2.55,146
2.55,142
2.55,142
2.55,139
2.55,140
2.55,138
2.55,137
2.56,143
2.56,146
2.56,144
2.56,144
2.56,148
2.57,145
2.57,143
2.57,138
2.57,136
2.57,135
2.57,134
2.57,137
2.58,137
2.58,138
2.58,136
2.58,137
2.58,133
2.58,129
2.59,126
2.59,124
2.59,123
2.59,129
2.59,127
2.59,128
2.59,131
2.6,131
2.6,132
2.6,136
2.6,134
2.6,132
2.61,131
2.61,129
2.61,125
2.61,121
2.61,121
2.61,123
2.61,125
2.62,125
2.62,123
2.62,122
2.62,118
2.62,115
2.62,111
2.63,108
2.63,108
2.63,106
2.63,104
2.63,109
2.63,106
2.63,106
2.64,109
2.64,110
2.64,107
2.64,110
2.64,115
2.64,126
2.65,127
2.65,127
2.65,124
2.65,120
2.65,118
2.65,115
2.66,117
2.66,119
2.66,118
2.66,114
2.66,111
2.66,109
2.67,108
2.67,117
2.67,124
2.67,134
2.67,143
2.67,147
2.68,145
2.68,147
2.68,146
2.68,150
2.68,149
2.68,146
2.68,146
2.69,146
2.69,143
2.69,141
2.69,137
2.69,135
2.69,136
2.7,133
2.7,130
2.7,134
2.7,140
2.7,141
2.7,141
2.71,141
2.71,152
2.71,155
2.71,153
2.71,163
2.71,162
2.72,175
2.72,186
2.72,187
2.72,182
2.72,186
2.72,192
2.72,211
2.73,209
2.73,208
2.73,203
2.73,197
2.73,193
2.73,192
2.74,189
2.74,191
2.74,187
2.74,181
2.74,180
2.74,174
2.75,173
2.75,173
2.75,173
2.75,173
2.75,174
2.75,171
2.76,168
2.76,164
2.76,160
2.76,157
2.76,155
2.76,154
2.76,151
2.77,155
2.77,152
2.77,151
2.77,152
2.77,164
2.77,176
2.78,179
2.78,198
2.78,216
2.78,221
2.78,215
2.78,215
2.79,209
2.79,202
2.79,198
2.79,198
2.79,194
2.79,187
2.8,182
2.8,176
2.8,172
2.8,169
2.8,165
2.8,163
2.8,162
2.81,158
2.81,163
2.81,161
2.81,157
2.81,154
2.81,149
2.82,149
2.82,146
2.82,153
2.82,159
2.82,166
2.82,164
2.83,160
2.83,157
2.83,159
2.83,154
2.83,151
2.83,152
2.84,169
2.84,183
2.84,194
2.84,209
2.84,207
2.84,203
2.84,198
2.85,192
2.85,186
2.85,185
2.85,179
2.85,173
2.85,174
2.86,170
2.86,164
2.86,160
2.86,156
2.86,153
2.86,149
2.87,149
2.87,151
2.87,148
2.87,144
2.87,142
2.87,139
2.88,135
2.88,131
2.88,127
2.88,124
2.88,123
2.88,127
2.88,131
2.89,135
2.89,134
2.89,135
2.89,140
2.89,143
2.89,144
2.9,144
2.9,147
2.9,146
2.9,142
2.9,142
2.9,145
2.91,142
2.91,146
2.91,146
2.91,147
2.91,149
2.91,151
2.92,155
2.92,160
2.92,165
2.92,173
2.92,174
2.92,170
2.92,165
2.93,160
2.93,155
2.93,152
2.93,154
2.93,151
2.93,148
2.94,153
2.94,151
2.94,147
2.94,144
2.94,142
2.94,148
2.95,157
2.95,162
2.95,164
2.95,161
2.95,164
2.95,164
2.96,162
2.96,159
2.96,154
2.96,154
2.96,163
2.96,161
2.96,162
2.97,169
2.97,174
2.97,171
2.97,166
2.97,162
2.97,160
2.98,157
2.98,153
2.98,149
2.98,145
2.98,141
2.98,137
2.98,138
2.99,139
2.99,136
2.99,135
2.99,145
2.99,145
3.0,159
3.0,164
3.0,161
3.0,157
3.0,153
3.0,148
3.0,151
3.01,154
3.01,154
3.01,161
3.01,159
3.01,164
3.01,162
3.02,160
3.02,162
3.02,163
3.02,159
3.02,158
3.02,165
3.02,165
3.03,163
3.03,160
3.03,161
3.03,163
3.03,160
3.04,155
3.04,154
3.04,159
3.04,161
3.04,163
3.04,159
3.04,154
3.05,151
3.05,150
3.05,147
3.05,144
3.05,143
3.05,143
3.06,142
3.06,139
3.06,135
3.06,131
3.06,127
3.06,124
3.06,121
3.07,118
3.07,116
3.07,121
3.07,125
3.07,123
3.08,124
3.08,123
3.08,123
3.08,123
3.08,121
3.08,119
3.08,117
3.09,114
3.09,111
3.09,108
3.09,107
3.09,111
3.09,115
3.1,114
3.1,113
3.1,115
3.1,121
3.1,122
3.1,122
3.1,133
3.11,138
3.11,149
3.11,146
3.11,141
3.11,137
3.12,133
3.12,129
3.12,126
3.12,122
3.12,118
3.12,115
3.12,116
3.13,114
3.13,116
3.13,117
3.13,119
3.13,118
3.13,121
3.14,121
3.14,121
3.14,119
3.14,116
3.14,113
3.14,110
3.14,109
3.15,106
3.15,105
3.15,104
3.15,102
3.15,103
3.15,106
3.16,104
3.16,102
3.16,100
3.16,100
3.16,97
3.16,95
3.17,93
3.17,90
3.17,87
3.17,85
3.17,83
3.17,81
3.18,79
3.18,77
3.18,75
3.18,73
3.18,73
3.18,75
3.18,80
3.19,78
3.19,77
3.19,74
3.19,72
3.19,71
3.19,69
3.19,67
3.2,66
3.2,64
3.2,62
3.2,60
3.2,59
3.21,57
3.21,56
3.21,55
3.21,54
3.21,53
3.21,52
3.21,50
3.22,49
3.22,49
3.22,49
3.22,50
3.22,49
3.22,48
3.22,47
3.23,46
3.23,47
3.23,47
3.23,47
3.23,46
3.23,45
3.24,46
3.24,49
3.24,51
3.24,54
3.24,56
3.24,56
3.25,54
3.25,54
3.25,53
3.25,53
3.25,53
3.25,55
3.25,56
3.26,54
3.26,53
3.26,51
3.26,50
3.26,49
3.26,48
3.27,47
3.27,50
3.27,54
3.27,55
3.27,55
3.27,55
3.27,59
3.28,62
3.28,63
3.28,62
3.28,60
3.28,58
3.28,57
3.28,56
3.29,54
3.29,53
3.29,52
3.29,51
3.29,50
3.29,49
3.3,49
3.3,51
3.3,53
3.3,52
3.3,50
3.3,49
3.31,50
3.31,52
3.31,56
3.31,57
3.31,56
3.31,60
3.31,63
3.32,62
3.32,62
3.32,66
3.32,69
3.32,68
3.32,66
3.32,66
3.33,68
3.33,72
3.33,73
3.33,71
3.33,70
3.34,70
3.34,70
3.34,70
3.34,69
3.34,68
3.34,67
3.34,66
3.35,64
3.35,63
3.35,61
3.35,60
3.35,58
3.35,58
3.35,58
3.36,57
3.36,56
3.36,56
3.36,55
3.36,54
3.36,52
3.37,51
3.37,50
3.37,49
3.37,49
3.37,49
3.37,49
3.38,50
3.38,50
3.38,50
3.38,49
3.38,48
3.38,47
3.38,45
3.39,47
3.39,48
3.39,48
3.39,50
3.39,50
3.39,50
3.4,49
3.4,48
3.4,50
3.4,51
3.4,52
3.4,53
3.4,53
3.41,53
3.41,54
3.41,55
3.41,54
3.41,53
3.41,54
3.42,55
3.42,55
3.42,60
3.42,61
3.42,60
3.42,62
3.42,65
3.43,63
3.43,65
3.43,71
3.43,78
3.43,79
3.43,78
3.44,81
3.44,84
3.44,86
3.44,85
3.44,84
3.44,82
3.44,80
3.45,78
3.45,76
3.45,74
3.45,71
3.45,70
3.45,70
3.46,69
3.46,68
3.46,69
3.46,68
3.46,66
3.46,64
3.47,63
3.47,61
3.47,60
3.47,58
3.47,57
3.47,55
3.47,54
3.48,53
3.48,52
3.48,51
3.48,50
3.48,49
3.48,48
3.48,47
3.49,46
3.49,45
3.49,44
3.49,44
3.49,43
3.49,43
3.5,42
3.5,41
3.5,41
3.5,40
3.5,39
3.5,38
3.51,37
3.51,36
3.51,36
3.51,36
3.51,36
3.51,36
3.51,36
3.52,35
3.52,35
3.52,35
3.52,35
3.52,35
3.52,34
3.53,35
3.53,37
3.53,36
3.53,35
3.53,34
3.53,35
3.53,35
3.54,34
3.54,35
3.54,34
3.54,33
3.54,33
3.54,32
3.55,31
3.55,32
3.55,31
3.55,31
3.55,31
3.55,30
3.55,30
3.56,29
3.56,30
3.56,30
3.56,29
3.56,29
3.56,28
3.57,28
3.57,28
3.57,28
3.57,27
3.57,28
3.57,28
3.57,28
3.58,28
3.58,28
3.58,27
3.58,27
3.58,27
3.58,27
3.59,26
3.59,26
3.59,25
3.59,25
3.59,25
3.59,25
3.59,25
3.6,24
3.6,24
3.6,24
3.6,24
3.6,24
3.6,24
3.61,24
3.61,23
3.61,23
3.61,23
3.61,22
3.61,22
3.61,22
3.62,22
3.62,22
3.62,22
3.62,22
3.62,22
3.62,22
3.63,23
3.63,23
3.63,23
3.63,22
3.63,22
3.63,22
3.64,22
3.64,22
3.64,22
3.64,22
3.64,23
3.64,22
3.64,22
3.65,22
3.65,23
3.65,23
3.65,23
3.65,24
3.65,25
3.65,25
3.66,25
3.66,25
3.66,25
3.66,24
3.66,26
3.66,26
3.67,25
3.67,25
3.67,25
3.67,26
3.67,26
3.67,26
3.68,27
3.68,27
3.68,26
3.68,26
3.68,26
3.68,26
3.68,25
3.69,25
3.69,24
3.69,24
3.69,24
3.69,25
3.69,25
3.7,25
3.7,25
3.7,25
3.7,26
3.7,27
3.7,26
3.7,27
3.71,29
3.71,30
3.71,30
3.71,29
3.71,29
3.71,29
3.72,29
3.72,28
3.72,28
3.72,30
3.72,36
3.72,40
3.72,43
3.73,42
3.73,45
3.73,49
3.73,53
3.73,54
3.73,53
3.74,51
3.74,50
3.74,49
3.74,48
3.74,50
3.74,52
3.74,51
3.75,50
3.75,50
3.75,50
3.75,51
3.75,50
3.75,49
3.76,47
3.76,46
3.76,46
3.76,46
3.76,44
3.76,44
3.77,43
3.77,42
3.77,41
3.77,40
3.77,40
3.77,39
3.77,38
3.78,38
3.78,38
3.78,37
3.78,36
3.78,36
3.78,35
3.78,34
3.79,34
3.79,34
3.79,33
3.79,33
3.79,33
3.79,32
3.8,32
3.8,31
3.8,31
3.8,31
3.8,30
3.8,30
3.81,30
3.81,29
3.81,29
3.81,29
3.81,29
3.81,31
3.81,31
3.82,31
3.82,30
3.82,30
3.82,31
3.82,30
3.82,30
3.83,30
3.83,34
3.83,36
3.83,36
3.83,38
3.83,39
3.83,39
3.84,39
3.84,37
3.84,37
3.84,36
3.84,36
3.84,35
3.85,34
3.85,33
3.85,33
3.85,33
3.85,32
3.85,32
3.85,33
3.86,35
3.86,41
3.86,42
3.86,41
3.86,42
3.86,42
3.87,42
3.87,41
3.87,41
3.87,41
3.87,41
3.87,40
3.87,42
3.88,43
3.88,42
3.88,41
3.88,41
3.88,43
3.88,43
3.89,43
3.89,42
3.89,41
3.89,41
3.89,44
3.89,44
3.9,43
3.9,43
3.9,44
3.9,43
3.9,43
3.9,42
3.9,42
3.91,42
3.91,41
3.91,42
3.91,42
3.91,41
3.91,41
3.91,41
3.92,41
3.92,41
3.92,41
3.92,42
3.92,45
3.92,46
3.93,45
3.93,44
3.93,43
3.93,43
3.93,43
3.93,44
3.94,43
3.94,43
3.94,42
3.94,41
3.94,41
3.94,40
3.94,39
3.95,39
3.95,38
3.95,37
3.95,37
3.95,36
3.95,36
3.96,35
3.96,35
3.96,35
3.96,34
3.96,34
3.96,33
3.96,32
3.97,32
3.97,32
3.97,32
3.97,34
3.97,35
3.97,36
3.98,38
3.98,37
3.98,38
3.98,39
3.98,38
3.98,40
3.98,41
3.99,41
3.99,41
3.99,40
3.99,41
3.99,44
3.99,44
4.0,44
4.0,44
4.0,43
4.0,42
4.0,41
4.0,40
4.0,40
4.01,39
4.01,39
4.01,39
4.01,39
4.01,39
4.01,38
4.02,38
4.02,37
4.02,36
4.02,36
4.02,35
4.02,34
4.03,34
4.03,33
4.03,33
4.03,32
4.03,32
4.03,31
4.03,31
4.03,30
4.04,31
4.04,31
4.04,30
4.04,29
4.04,29
4.04,29
4.05,28
4.05,28
4.05,27
4.05,27
4.05,27
4.05,26
4.06,26
4.06,26
4.06,26
4.06,26
4.06,26
4.06,25
4.07,26
4.07,25
4.07,25
4.07,25
4.07,25
4.07,24
4.07,25
4.07,25
4.08,28
4.08,29
4.08,29
4.08,29
4.08,29
4.08,28
4.09,29
4.09,28
4.09,28
4.09,28
4.09,28
4.09,27
4.1,27
4.1,27
4.1,26
4.1,27
4.1,27
4.1,26
4.11,27
4.11,28
4.11,30
4.11,32
4.11,32
4.11,31
4.11,30
4.11,31
4.12,32
4.12,32
4.12,32
4.12,31
4.12,31
4.13,32
4.13,31
4.13,30
4.13,30
4.13,30
4.13,29
4.13,29
4.14,30
4.14,30
4.14,30
4.14,30
4.14,30
4.14,29
4.15,29
4.15,29
4.15,28
4.15,28
4.15,29
4.15,28
4.15,29
4.16,28
4.16,28
4.16,28
4.16,28
4.16,27
4.16,27
4.17,27
4.17,26
4.17,26
4.17,26
4.17,26
4.17,26
4.17,25
4.18,25
4.18,25
4.18,25
4.18,24
4.18,24
4.18,24
4.19,23
4.19,23
4.19,24
4.19,23
4.19,23
4.19,23
4.2,23
4.2,22
4.2,22
4.2,22
4.2,22
4.2,22
4.2,22
4.21,22
4.21,22
4.21,22
4.21,22
4.21,22
4.21,23
4.21,23
4.22,25
4.22,25
4.22,25
4.22,26
4.22,26
4.22,27
4.23,27
4.23,27
4.23,26
4.23,27
4.23,26
4.23,26
4.24,26
4.24,27
4.24,27
4.24,28
4.24,30
4.24,30
4.24,29
4.25,29
4.25,28
4.25,28
4.25,28
4.25,27
4.25,27
4.26,27
4.26,27
4.26,28
4.26,29
4.26,28
4.26,28
4.26,28
4.26,29
4.27,29
4.27,29
4.27,29
4.27,29
4.27,28
4.28,28
4.28,28
4.28,27
4.28,27
4.28,27
4.28,27
4.28,26
4.29,26
4.29,26
4.29,25
4.29,26
4.29,26
4.29,26
4.3,26
4.3,26
4.3,26
4.3,25
4.3,24
4.3,25
4.3,24
4.3,24
4.31,24
4.31,24
4.31,24
4.31,23
4.31,23
4.32,24
4.32,24
4.32,24
4.32,24
4.32,23
4.32,23
4.32,24
4.33,23
4.33,24
4.33,25
4.33,25
4.33,26
4.33,26
4.34,27
4.34,27
4.34,26
4.34,27
4.34,27
4.34,27
4.34,27
4.35,26
4.35,26
4.35,26
4.35,26
4.35,25
4.35,24
4.36,24
4.36,24
4.36,24
4.36,24
4.36,24
4.36,24
4.36,24
4.37,24
4.37,23
4.37,23
4.37,23
4.37,24
4.37,23
4.38,24
4.38,24
4.38,24
4.38,25
4.38,25
4.38,24
4.39,24
4.39,24
4.39,25
4.39,25
4.39,25
4.39,25
4.4,25
4.4,25
4.4,26
4.4,26
4.4,26
4.4,26
4.4,30
4.41,31
4.41,31
4.41,30
4.41,30
4.41,32
4.41,35
4.41,37
4.42,37
4.42,36
4.42,35
4.42,35
4.42,34
4.42,34
4.43,36
4.43,37
4.43,36
4.43,35
4.43,35
4.43,34
4.43,33
4.44,33
4.44,33
4.44,35
4.44,36
4.44,35
4.44,35
4.45,34
4.45,33
4.45,33
4.45,32
4.45,32
4.45,31
4.46,31
4.46,31
4.46,30
4.46,31
4.46,31
4.46,30
4.46,30
4.47,29
4.47,29
4.47,29
4.47,28
4.47,27
4.47,27
4.47,27
4.48,27
4.48,27
4.48,28
4.48,28
4.48,28
4.48,28
4.49,28
4.49,28
4.49,28
4.49,27
4.49,28
4.49,28
4.5,28
4.5,27
4.5,27
4.5,27
4.5,27
4.5,27
4.5,27
4.51,26
4.51,26
4.51,26
4.51,26
4.51,26
4.51,26
4.51,25
4.52,25
4.52,25
4.52,25
4.52,25
4.52,25
4.53,25
4.53,25
4.53,25
4.53,25
4.53,24
4.53,24
4.53,24
4.53,25
4.54,24
4.54,24
4.54,23
4.54,23
4.54,23
4.54,24
4.55,23
4.55,23
4.55,23
4.55,24
4.55,24
4.55,24
4.55,23
4.56,23
4.56,23
4.56,24
4.56,24
4.56,24
4.56,25
4.57,25
4.57,25
4.57,25
4.57,26
4.57,26
4.57,26
4.57,26
4.58,26
4.58,26
4.58,26
4.58,25
4.58,25
4.58,25
4.59,25
4.59,25
4.59,24
4.59,24
4.59,25
4.59,25
4.59,24
4.6,24
4.6,24
4.6,24
4.6,23
4.6,23
4.6,23
4.61,23
4.61,23
4.61,24
4.61,24
4.61,24
4.61,24
4.62,24
4.62,24
4.62,24
4.62,23
4.62,23
4.62,23
4.63,22
4.63,22
4.63,22
4.63,22
4.63,22
4.63,21
4.63,22
4.64,22
4.64,25
4.64,26
4.64,25
4.64,25
4.64,26
4.64,26
4.65,27
4.65,27
4.65,27
4.65,26
4.65,27
4.66,26
4.66,26
4.66,25
4.66,25
4.66,25
4.66,25
4.66,25
4.67,25
4.67,24
4.67,24
4.67,24
4.67,24
4.67,23
4.67,23
4.68,24
4.68,24
4.68,24
4.68,24
4.68,24
4.68,24
4.69,23
4.69,24
4.69,24
4.69,23
4.69,23
4.69,23
4.7,22
4.7,22
4.7,23
4.7,23
4.7,22
4.7,22
4.7,23
4.71,24
4.71,24
4.71,24
4.71,24
4.71,24
4.71,24
4.71,25
4.72,25
4.72,24
4.72,24
4.72,24
4.72,24
4.72,25
4.73,25
4.73,26
4.73,25
4.73,26
4.73,26
4.73,26
4.73,26
4.74,25
4.74,25
4.74,25
4.74,25
4.74,26
4.74,26
4.75,26
4.75,25
4.75,26
4.75,25
4.75,25
4.75,25
4.76,26
4.76,26
4.76,28
4.76,31
4.76,31
4.76,32
4.76,33
4.76,35
4.77,36
4.77,36
4.77,36
4.77,35
4.77,35
4.78,35
4.78,37
4.78,38
4.78,40
4.78,44
4.78,52
4.78,59
4.79,60
4.79,62
4.79,67
4.79,74
4.79,80
4.79,82
4.8,82
4.8,82
4.8,81
4.8,79
4.8,77
4.8,75
4.8,74
4.81,73
4.81,73
4.81,75
4.81,76
4.81,75
4.81,77
4.82,77
4.82,76
4.82,75
4.82,73
4.82,71
4.82,69
4.82,67
4.83,66
4.83,64
4.83,62
4.83,61
4.83,59
4.83,58
4.84,57
4.84,55
4.84,54
4.84,53
4.84,51
4.84,51
4.84,49
4.85,48
4.85,47
4.85,46
4.85,46
4.85,45
4.85,44
4.86,44
4.86,45
4.86,47
4.86,48
4.86,48
4.86,50
4.86,52
4.87,53
4.87,52
4.87,51
4.87,51
4.87,49
4.87,48
4.88,47
4.88,46
4.88,45
4.88,44
4.88,44
4.88,43
4.89,43
4.89,41
4.89,41
4.89,40
4.89,39
4.89,40
4.89,39
4.9,39
4.9,38
4.9,37
4.9,36
4.9,35
4.9,35
4.91,35
4.91,34
4.91,34
4.91,33
4.91,32
4.91,32
4.92,31
4.92,31
4.92,31
4.92,31
4.92,30
4.92,30
4.92,29
4.93,29
4.93,29
4.93,28
4.93,28
4.93,28
4.93,27
4.93,27
4.94,26
4.94,26
4.94,26
4.94,25
4.94,26
4.94,26
4.95,25
4.95,25
4.95,25
4.95,25
4.95,26
4.95,27
4.96,26
4.96,26
4.96,26
4.96,25
4.96,25
4.96,25
4.96,25
4.97,24
4.97,24
4.97,24
4.97,24
4.97,25
4.97,25
4.98,24
4.98,24
4.98,24
4.98,24
4.98,24
4.98,23
4.98,23
4.99,23
4.99,23
4.99,23
4.99,23
4.99,22
4.99,23
5.0,22
5.0,22
5.0,22
5.0,21
5.0,21
5.0,21
5.0,21
5.01,20
5.01,21
5.01,20
5.01,21
5.01,21
5.01,21
5.01,20
5.02,20
5.02,20
5.02,20
5.02,20
5.02,20
5.02,20
5.03,20
5.03,20
5.03,20
5.03,20
5.03,21
5.03,21
5.03,21
5.04,20
5.04,22
5.04,22
5.04,22
5.04,23
5.04,23
5.05,22
5.05,23
5.05,24
5.05,25
5.05,25
5.05,25
5.05,25
5.06,25
5.06,24
5.06,25
5.06,25
5.06,24
5.06,25
5.07,25
5.07,24
5.07,24
5.07,25
5.07,26
5.07,25
5.07,25
5.08,25
5.08,24
5.08,24
5.08,25
5.08,25
5.08,25
5.09,25
5.09,25
5.09,25
5.09,25
5.09,25
5.09,25
5.09,25
5.1,24
5.1,25
5.1,25
5.1,25
5.1,24
5.1,26
5.11,25
5.11,25
5.11,25
5.11,24
5.11,24
5.11,24
5.11,24
5.12,24
5.12,23
5.12,23
5.12,24
5.12,23
5.13,23
5.13,23
5.13,23
5.13,22
5.13,22
5.13,22
5.13,21
5.14,22
5.14,22
5.14,24
5.14,24
5.14,24
5.14,24
5.14,23
5.15,23
5.15,23
5.15,23
5.15,23
5.15,23
5.15,23
5.16,23
5.16,23
5.16,23
5.16,23
5.16,22
5.16,22
5.17,23
5.17,22
5.17,22
5.17,22
5.17,22
5.17,23
5.17,22
5.18,23
5.18,22
5.18,22
5.18,22
5.18,22
5.18,23
5.19,22
5.19,22
5.19,24
5.19,25
5.19,26
5.19,25
5.19,25
5.2,26
5.2,27
5.2,26
5.2,25
5.2,25
5.2,24
5.2,24
5.21,24
5.21,24
5.21,24
5.21,25
5.21,25
5.21,24
5.22,25
5.22,26
5.22,28
5.22,28
5.22,28
5.22,28
5.23,29
5.23,31
5.23,32
5.23,33
5.23,33
5.23,35
5.23,37
5.24,39
5.24,39
5.24,39
5.24,38
5.24,37
5.24,37
5.25,37
5.25,36
5.25,36
5.25,36
5.25,35
5.25,34
5.26,34
5.26,33
5.26,32
5.26,32
5.26,32
5.26,32
5.26,31
5.26,31
5.27,30
5.27,30
5.27,29
5.27,30
5.27,29
5.27,29
5.28,29
5.28,29
5.28,29
5.28,30
5.28,30
5.28,30
5.28,30
5.29,29
5.29,28
5.29,28
5.29,27
5.29,28
5.3,28
5.3,28
5.3,27
5.3,27
5.3,27
5.3,26
5.3,26
5.3,26
5.31,25
5.31,25
5.31,26
5.31,26
5.31,25
5.32,26
5.32,26
5.32,26
5.32,26
5.32,25
5.32,25
5.32,24
5.32,24
5.33,24
5.33,24
5.33,24
5.33,24
5.33,23
5.34,23
5.34,23
5.34,25
5.34,25
5.34,25
5.34,26
5.34,26
5.35,26
5.35,25
5.35,25
5.35,25
5.35,24
5.35,24
5.36,24
5.36,24
5.36,24
5.36,25
5.36,25
5.36,25
5.36,24
5.36,25
5.37,24
5.37,24
5.37,24
5.37,24
5.37,25
5.37,26
5.38,28
5.38,27
5.38,28
5.38,30
5.38,31
5.39,31
5.39,31
5.39,31
5.39,32
5.39,31
5.39,31
5.39,32
5.4,31
5.4,31
5.4,30
5.4,30
5.4,30
5.4,29
5.4,29
5.41,29
5.41,28
5.41,28
5.41,28
5.41,28
5.41,28
5.42,28
5.42,28
5.42,27
5.42,27
5.42,27
5.42,27
5.43,27
5.43,28
5.43,29
5.43,29
5.43,29
5.43,29
5.43,29
5.44,29
5.44,30
5.44,31
5.44,31
5.44,31
5.44,30
5.44,30
5.45,30
5.45,31
5.45,31
5.45,30
