Time_s,ADC
0.0,72
0.0,74
0.0,73
0.0,71
0.01,69
0.01,67
0.01,67
0.01,68
0.01,66
0.01,67
0.01,68
0.02,67
0.02,68
0.02,67
0.02,67
0.02,65
0.02,63
0.03,66
0.03,66
0.03,65
0.03,65
0.03,65
0.03,64
0.03,64
0.04,63
0.04,63
0.04,63
0.04,63
0.04,64
0.04,64
0.05,63
0.05,64
0.05,64
0.05,66
0.05,68
0.05,67
0.05,70
0.06,72
0.06,74
0.06,77
0.06,75
0.06,78
0.06,79
0.07,82
0.07,84
0.07,85
0.07,84
0.07,84
0.07,83
0.07,84
0.08,85
0.08,85
0.08,83
0.08,82
0.08,81
0.08,84
0.09,85
0.09,84
0.09,84
0.09,83
0.09,82
0.09,83
0.1,81
0.1,80
0.1,80
0.1,79
0.1,80
0.1,80
0.1,79
0.11,79
0.11,77
0.11,76
0.11,77
0.11,75
0.11,75
0.11,76
0.12,75
0.12,76
0.12,76
0.12,75
0.12,74
0.12,73
0.12,74
0.13,74
0.13,73
0.13,72
0.13,73
0.13,74
0.13,77
0.14,76
0.14,75
0.14,75
0.14,75
0.14,76
0.14,76
0.14,74
0.15,74
0.15,75
0.15,75
0.15,76
0.15,76
0.15,77
0.16,78
0.16,76
0.16,74
0.16,72
0.16,72
0.16,73
0.17,73
0.17,75
0.17,76
0.17,75
0.17,75
0.17,74
0.17,73
0.18,75
0.18,75
0.18,74
0.18,74
0.18,74
0.18,76
0.19,76
0.19,75
0.19,74
0.19,73
0.19,72
0.19,73
0.19,72
0.2,71
0.2,71
0.2,71
0.2,72
0.2,72
0.2,72
0.2,71
0.21,71
0.21,69
0.21,71
0.21,70
0.21,69
0.22,70
0.22,70
0.22,72
0.22,72
0.22,71
0.22,71
0.22,70
0.22,70
0.23,73
0.23,72
0.23,71
0.23,73
0.23,76
0.23,78
0.24,77
0.24,76
0.24,75
0.24,76
0.24,79
0.24,80
0.25,78
0.25,80
0.25,80
0.25,81
0.25,82
0.25,81
0.25,79
0.26,79
0.26,78
0.26,79
0.26,79
0.26,77
0.26,77
0.26,77
0.27,78
0.27,78
0.27,77
0.27,77
0.27,76
0.27,75
0.28,76
0.28,76
0.28,74
0.28,74
0.28,73
0.28,74
0.28,76
0.29,75
0.29,74
0.29,73
0.29,72
0.29,73
0.29,72
0.3,71
0.3,71
0.3,72
0.3,73
0.3,73
0.3,72
0.31,73
0.31,72
0.31,72
0.31,73
0.31,73
0.31,71
0.31,70
0.32,72
0.32,78
0.32,79
0.32,78
0.32,77
0.32,76
0.32,75
0.33,75
0.33,74
0.33,74
0.33,75
0.33,74
0.33,75
0.34,74
0.34,74
0.34,73
0.34,73
0.34,75
0.34,75
0.35,75
0.35,77
0.35,77
0.35,78
0.35,79
0.35,77
0.35,77
0.36,76
0.36,75
0.36,76
0.36,76
0.36,74
0.36,75
0.37,75
0.37,76
0.37,76
0.37,75
0.37,75
0.37,74
0.37,74
0.38,76
0.38,74
0.38,74
0.38,75
0.38,75
0.38,77
0.39,76
0.39,75
0.39,75
0.39,74
0.39,75
0.39,75
0.4,74
0.4,73
0.4,74
0.4,74
0.4,75
0.4,73
0.4,73
0.41,71
0.41,70
0.41,70
0.41,70
0.41,68
0.41,68
0.41,67
0.42,66
0.42,67
0.42,68
0.42,67
0.42,66
0.42,65
0.43,67
0.43,66
0.43,65
0.43,66
0.43,66
0.43,66
0.44,68
0.44,67
0.44,67
0.44,67
0.44,66
0.44,69
0.44,69
0.45,67
0.45,68
0.45,68
0.45,70
0.45,71
0.45,70
0.45,70
0.46,69
0.46,70
0.46,72
0.46,71
0.46,70
0.46,71
0.46,73
0.47,74
0.47,76
0.47,75
0.47,74
0.47,74
0.47,75
0.48,76
0.48,75
0.48,74
0.48,75
0.48,74
0.48,76
0.49,76
0.49,74
0.49,75
0.49,75
0.49,76
0.49,77
0.5,76
0.5,77
0.5,81
0.5,83
0.5,84
0.5,83
0.5,84
0.51,86
0.51,86
0.51,83
0.51,80
0.51,80
0.51,80
0.52,79
0.52,78
0.52,79
0.52,77
0.52,77
0.52,76
0.52,74
0.53,77
0.53,77
0.53,75
0.53,76
0.53,77
0.53,78
0.54,78
0.54,76
0.54,76
0.54,74
0.54,72
0.54,73
0.54,75
0.55,74
0.55,72
0.55,71
0.55,75
0.55,77
0.55,76
0.56,76
0.56,75
0.56,74
0.56,75
0.56,74
0.56,74
0.56,75
0.57,75
0.57,77
0.57,77
0.57,75
0.57,74
0.57,74
0.57,75
0.58,76
0.58,75
0.58,74
0.58,72
0.58,71
0.58,72
0.59,71
0.59,72
0.59,75
0.59,79
0.59,84
0.59,84
0.6,92
0.6,98
0.6,98
0.6,99
0.6,102
0.6,101
0.61,106
0.61,111
0.61,116
0.61,119
0.61,115
0.61,113
0.61,115
0.62,115
0.62,118
0.62,122
0.62,119
0.62,117
0.62,113
0.63,113
0.63,114
0.63,112
0.63,109
0.63,108
0.63,112
0.63,113
0.64,110
0.64,108
0.64,105
0.64,102
0.64,102
0.65,102
0.65,99
0.65,98
0.65,97
0.65,97
0.65,96
0.65,95
0.66,94
0.66,94
0.66,93
0.66,93
0.66,90
0.66,89
0.67,89
0.67,89
0.67,90
0.67,89
0.67,88
0.67,87
0.67,86
0.68,84
0.68,84
0.68,82
0.68,81
0.68,81
0.68,83
0.69,88
0.69,86
0.69,89
0.69,91
0.69,93
0.69,91
0.69,91
0.7,90
0.7,88
0.7,91
0.7,95
0.7,96
0.7,95
0.7,96
0.71,94
0.71,92
0.71,93
0.71,91
0.71,89
0.71,89
0.71,89
0.72,89
0.72,89
0.72,88
0.72,87
0.72,85
0.73,85
0.73,86
0.73,88
0.73,85
0.73,84
0.73,84
0.74,88
0.74,90
0.74,88
0.74,87
0.74,86
0.74,85
0.74,85
0.75,83
0.75,83
0.75,82
0.75,80
0.75,80
0.75,78
0.75,76
0.76,75
0.76,75
0.76,75
0.76,74
0.76,73
0.76,73
0.76,74
0.77,74
0.77,75
0.77,74
0.77,75
0.77,77
0.77,78
0.78,78
0.78,76
0.78,75
0.78,76
0.78,75
0.78,76
0.79,78
0.79,77
0.79,76
0.79,74
0.79,73
0.79,74
0.79,74
0.8,73
0.8,73
0.8,74
0.8,75
0.8,75
0.8,74
0.81,75
0.81,75
0.81,76
0.81,78
0.81,77
0.81,78
0.81,78
0.82,78
0.82,79
0.82,79
0.82,78
0.82,78
0.82,77
0.83,78
0.83,79
0.83,78
0.83,77
0.83,78
0.83,77
0.83,79
0.84,78
0.84,77
0.84,77
0.84,76
0.84,76
0.84,76
0.85,75
0.85,76
0.85,76
0.85,76
0.85,78
0.85,77
0.86,76
0.86,76
0.86,75
0.86,79
0.86,81
0.86,80
0.86,86
0.87,87
0.87,86
0.87,87
0.87,85
0.87,86
0.87,84
0.88,87
0.88,94
0.88,95
0.88,92
0.88,91
0.88,90
0.88,90
0.88,90
0.89,88
0.89,88
0.89,86
0.89,85
0.89,85
0.89,84
0.9,82
0.9,84
0.9,83
0.9,84
0.9,84
0.9,83
0.91,84
0.91,83
0.91,81
0.91,81
0.91,80
0.91,79
0.91,79
0.92,79
0.92,81
0.92,80
0.92,80
0.92,79
0.92,78
0.93,78
0.93,79
0.93,77
0.93,77
0.93,77
0.93,77
0.93,79
0.94,78
0.94,77
0.94,76
0.94,75
0.94,77
0.95,77
0.95,76
0.95,75
0.95,74
0.95,74
0.95,78
0.95,77
0.95,76
0.96,75
0.96,72
0.96,76
0.96,78
0.96,77
0.96,78
0.97,79
0.97,80
0.97,81
0.97,80
0.97,80
0.97,80
0.98,80
0.98,82
0.98,80
0.98,82
0.98,85
0.98,85
0.98,83
0.99,81
0.99,79
0.99,80
0.99,79
0.99,78
0.99,79
1.0,78
1.0,77
1.0,76
1.0,74
1.0,76
1.0,75
1.0,74
1.01,74
1.01,72
1.01,71
1.01,71
1.01,70
1.01,70
1.01,72
1.02,74
1.02,76
1.02,75
1.02,76
1.02,78
1.02,79
1.03,79
1.03,79
1.03,77
1.03,75
1.03,76
1.03,75
1.03,79
1.04,79
1.04,79
1.04,78
1.04,76
1.04,78
1.04,78
1.05,82
1.05,86
1.05,90
1.05,88
1.05,86
1.05,85
1.05,83
1.06,82
1.06,86
1.06,100
1.06,108
1.06,108
1.06,107
1.07,109
1.07,114
1.07,112
1.07,110
1.07,111
1.07,110
1.08,107
1.08,104
1.08,101
1.08,99
1.08,96
1.08,96
1.09,98
1.09,96
1.09,94
1.09,91
1.09,89
1.09,90
1.09,95
1.1,100
1.1,100
1.1,104
1.1,111
1.1,110
1.1,114
1.11,115
1.11,113
1.11,115
1.11,113
1.11,114
1.11,112
1.12,118
1.12,125
1.12,124
1.12,128
1.12,126
1.12,122
1.12,119
1.13,117
1.13,117
1.13,117
1.13,124
1.13,122
1.13,125
1.14,126
1.14,127
1.14,130
1.14,127
1.14,133
1.14,150
1.14,154
1.15,164
1.15,162
1.15,158
1.15,161
1.15,164
1.16,159
1.16,157
1.16,162
1.16,162
1.16,159
1.16,155
1.16,151
1.17,151
1.17,154
1.17,160
1.17,160
1.17,161
1.17,166
1.18,170
1.18,166
1.18,163
1.18,164
1.18,163
1.18,159
1.18,159
1.19,165
1.19,178
1.19,178
1.19,176
1.19,175
1.2,175
1.2,173
1.2,171
1.2,180
1.2,191
1.2,189
1.21,197
1.21,194
1.21,191
1.21,188
1.21,188
1.21,190
1.21,199
1.22,216
1.22,213
1.22,212
1.22,220
1.22,216
1.22,216
1.23,216
1.23,230
1.23,226
1.23,225
1.23,222
1.23,226
1.24,223
1.24,231
1.24,229
1.24,223
1.24,228
1.24,238
1.25,252
1.25,255
1.25,260
1.25,260
1.25,271
1.25,272
1.25,263
1.26,255
1.26,246
1.26,241
1.26,235
1.26,232
1.26,236
1.26,238
1.27,245
1.27,249
1.27,264
1.27,274
1.27,273
1.27,272
1.28,274
1.28,281
1.28,281
1.28,272
1.28,279
1.28,274
1.29,271
1.29,284
1.29,286
1.29,295
1.29,327
1.29,337
1.3,363
1.3,360
1.3,349
1.3,341
1.3,330
1.3,328
1.31,327
1.31,322
1.31,327
1.31,334
1.31,336
1.31,327
1.32,326
1.32,318
1.32,310
1.32,305
1.32,316
1.32,310
1.33,326
1.33,330
1.33,350
1.33,345
1.33,347
1.33,347
1.34,338
1.34,336
1.34,329
1.34,331
1.34,350
1.34,344
1.34,336
1.35,338
1.35,344
1.35,340
1.35,335
1.35,342
1.35,332
1.36,338
1.36,340
1.36,374
1.36,381
1.36,393
1.36,388
1.36,377
1.37,367
1.37,379
1.37,394
1.37,398
1.37,409
1.37,397
1.38,392
1.38,386
1.38,397
1.38,392
1.38,395
1.38,391
1.39,387
1.39,380
1.39,376
1.39,367
1.39,358
1.39,349
1.39,340
1.4,331
1.4,323
1.4,335
1.4,328
1.4,321
1.4,321
1.41,330
1.41,323
1.41,315
1.41,314
1.41,314
1.41,324
1.42,320
1.42,326
1.42,324
1.42,325
1.42,328
1.42,330
1.43,325
1.43,326
1.43,317
1.43,310
1.43,301
1.43,293
1.43,290
1.44,289
1.44,301
1.44,297
1.44,308
1.44,300
1.45,294
1.45,292
1.45,294
1.45,286
1.45,278
1.45,272
1.46,265
1.46,268
1.46,283
1.46,286
1.46,298
1.46,290
1.46,287
1.47,279
1.47,270
1.47,263
1.47,258
1.47,253
1.47,266
1.48,261
1.48,257
1.48,252
1.48,256
1.48,250
1.48,259
1.49,265
1.49,282
1.49,299
1.49,312
1.49,311
1.49,312
1.5,307
1.5,301
1.5,294
1.5,285
1.5,283
1.5,284
1.5,278
1.51,280
1.51,282
1.51,276
1.51,283
1.51,293
1.51,289
1.51,298
1.52,296
1.52,314
1.52,327
1.52,327
1.52,329
1.52,322
1.53,319
1.53,331
1.53,331
1.53,343
1.53,339
1.53,339
1.54,341
1.54,336
1.54,337
1.54,328
1.54,319
1.54,310
1.55,300
1.55,296
1.55,302
1.55,309
1.55,321
1.55,323
1.55,319
1.56,314
1.56,310
1.56,310
1.56,303
1.56,297
1.57,291
1.57,291
1.57,290
1.57,303
1.57,305
1.57,320
1.57,325
1.58,327
1.58,316
1.58,316
1.58,336
1.58,333
1.58,330
1.59,334
1.59,327
1.59,318
1.59,312
1.59,310
1.59,301
1.6,295
1.6,293
1.6,294
1.6,293
1.6,298
1.6,295
1.61,303
1.61,314
1.61,316
1.61,317
1.61,319
1.61,324
1.61,316
1.62,307
1.62,303
1.62,297
1.62,291
1.62,285
1.63,278
1.63,276
1.63,277
1.63,297
1.63,295
1.63,292
1.63,289
1.63,285
1.64,278
1.64,276
1.64,275
1.64,268
1.64,261
1.65,262
1.65,265
1.65,263
1.65,262
1.65,266
1.65,278
1.65,282
1.66,296
1.66,299
1.66,298
1.66,293
1.66,292
1.66,284
1.67,275
1.67,269
1.67,264
1.67,259
1.67,252
1.67,246
1.68,238
1.68,236
1.68,239
1.68,240
1.68,250
1.68,252
1.68,257
1.69,268
1.69,268
1.69,269
1.69,263
1.69,256
1.69,256
1.7,258
1.7,272
1.7,266
1.7,271
1.7,269
1.7,285
1.71,285
1.71,276
1.71,268
1.71,264
1.71,270
1.71,263
1.72,268
1.72,267
1.72,263
1.72,257
1.72,253
1.72,250
1.73,251
1.73,247
1.73,248
1.73,243
1.73,238
1.73,232
1.73,223
1.74,216
1.74,210
1.74,204
1.74,197
1.74,194
1.74,190
1.75,190
1.75,194
1.75,199
1.75,216
1.75,218
1.75,222
1.76,234
1.76,235
1.76,232
1.76,227
1.76,222
1.76,217
1.76,214
1.77,208
1.77,212
1.77,208
1.77,201
1.77,202
1.77,200
1.78,200
1.78,211
1.78,222
1.78,220
1.78,221
1.78,217
1.78,212
1.79,209
1.79,202
1.79,196
1.79,194
1.79,194
1.8,189
1.8,186
1.8,183
1.8,182
1.8,181
1.8,177
1.8,173
1.81,169
1.81,164
1.81,161
1.81,159
1.81,154
1.81,152
1.82,147
1.82,144
1.82,147
1.82,143
1.82,138
1.82,134
1.83,133
1.83,134
1.83,132
1.83,130
1.83,133
1.83,134
1.84,132
1.84,131
1.84,128
1.84,131
1.84,137
1.84,150
1.85,166
1.85,166
1.85,167
1.85,166
1.85,164
1.85,161
1.86,156
1.86,153
1.86,149
1.86,144
1.86,141
1.86,137
1.86,133
1.86,133
1.87,132
1.87,133
1.87,130
1.87,131
1.87,129
1.88,126
1.88,124
1.88,123
1.88,119
1.88,116
1.88,114
1.88,113
1.89,112
1.89,109
1.89,108
1.89,105
1.89,104
1.9,104
1.9,101
1.9,100
1.9,99
1.9,98
1.9,98
1.9,96
1.9,96
1.91,95
1.91,94
1.91,95
1.91,94
1.91,92
1.91,92
1.92,92
1.92,92
1.92,92
1.92,90
1.92,90
1.92,89
1.93,89
1.93,94
1.93,92
1.93,94
1.93,94
1.93,93
1.93,93
1.94,91
1.94,89
1.94,86
1.94,86
1.94,87
1.94,89
1.95,88
1.95,86
1.95,87
1.95,90
1.95,93
1.95,91
1.96,89
1.96,87
1.96,87
1.96,91
1.96,95
1.96,95
1.97,92
1.97,91
1.97,90
1.97,90
1.97,89
1.97,87
1.97,86
1.98,84
1.98,84
1.98,84
1.98,82
1.98,82
1.98,82
1.98,82
1.99,83
1.99,81
1.99,81
1.99,81
1.99,80
1.99,81
2.0,80
2.0,79
2.0,80
2.0,80
2.0,81
2.0,82
2.0,81
2.01,80
2.01,80
2.01,79
2.01,81
2.01,81
2.01,80
2.02,80
2.02,80
2.02,80
2.02,80
2.02,79
2.02,78
2.02,77
2.03,77
2.03,78
2.03,77
2.03,76
2.03,77
2.03,77
2.04,77
2.04,77
2.04,76
2.04,76
2.04,76
2.04,77
2.04,79
2.05,78
2.05,77
2.05,78
2.05,78
2.05,79
2.05,79
2.06,77
2.06,77
2.06,77
2.06,77
2.06,78
2.06,76
2.07,76
2.07,76
2.07,75
2.07,77
2.07,76
2.07,75
2.07,75
2.08,74
2.08,76
2.08,77
2.08,75
2.08,75
2.08,75
2.08,76
2.09,77
2.09,76
2.09,76
2.09,75
2.09,74
2.09,75
2.1,75
2.1,73
2.1,74
2.1,73
2.1,74
2.1,74
2.11,74
2.11,74
2.11,73
2.11,73
2.11,75
2.11,74
2.11,73
2.12,74
2.12,75
2.12,76
2.12,76
2.12,75
2.12,74
2.12,73
2.13,72
2.13,73
2.13,72
2.13,71
2.13,71
2.14,72
2.14,74
2.14,73
2.14,74
2.14,74
2.14,74
2.14,75
2.15,76
2.15,75
2.15,75
2.15,76
2.15,76
2.15,78
2.15,77
2.16,76
2.16,75
2.16,75
2.16,77
2.16,77
2.16,76
2.17,76
2.17,75
2.17,76
2.17,77
2.17,75
2.17,75
2.17,74
2.18,74
2.18,76
2.18,76
2.18,75
2.18,76
2.18,78
2.19,78
2.19,79
2.19,78
2.19,78
2.19,78
2.19,78
2.2,79
2.2,77
2.2,77
2.2,77
2.2,77
2.2,79
2.2,78
2.21,78
2.21,78
2.21,77
2.21,77
2.21,77
2.21,76
2.21,75
2.22,76
2.22,76
2.22,78
2.22,77
2.22,76
2.22,75
2.23,74
2.23,76
2.23,76
2.23,74
2.23,74
2.23,74
2.24,74
2.24,75
2.24,74
2.24,74
2.24,73
2.24,72
2.24,73
2.25,74
2.25,72
2.25,73
2.25,73
2.25,74
2.25,75
2.26,73
2.26,73
2.26,72
2.26,72
2.26,74
2.26,73
2.27,73
2.27,74
2.27,74
2.27,76
2.27,76
2.27,76
2.27,77
2.28,77
2.28,77
2.28,77
2.28,76
2.28,77
2.28,77
2.28,77
2.29,78
2.29,77
2.29,76
2.29,76
2.29,76
2.29,78
2.3,79
2.3,77
2.3,77
2.3,77
2.3,78
2.3,80
2.31,79
2.31,79
2.31,78
2.31,78
2.31,80
2.31,80
2.31,78
2.32,78
2.32,79
2.32,80
2.32,81
2.32,80
2.32,79
2.33,78
2.33,77
2.33,81
2.33,83
2.33,81
2.33,81
2.33,86
2.34,90
2.34,90
2.34,88
2.34,86
2.34,85
2.34,91
2.34,92
2.35,90
2.35,88
2.35,86
2.35,84
2.35,83
2.35,82
2.36,83
2.36,84
2.36,86
2.36,91
2.36,92
2.36,93
2.37,97
2.37,101
2.37,101
2.37,107
2.37,106
2.37,114
2.37,123
2.38,126
2.38,128
2.38,129
2.38,126
2.38,124
2.38,120
2.39,121
2.39,120
2.39,117
2.39,116
2.39,113
2.39,111
2.4,111
2.4,111
2.4,116
2.4,119
2.4,118
2.4,115
2.41,118
2.41,118
2.41,121
2.41,119
2.41,121
2.41,124
2.41,125
2.42,123
2.42,124
2.42,131
2.42,131
2.42,137
2.42,136
2.43,132
2.43,136
2.43,135
2.43,131
2.43,135
2.43,151
2.44,160
2.44,164
2.44,174
2.44,183
2.44,183
2.44,180
2.45,177
2.45,174
2.45,170
2.45,168
2.45,164
2.45,165
2.45,167
2.46,166
2.46,164
2.46,163
2.46,164
2.46,167
2.46,173
2.47,169
2.47,176
2.47,182
2.47,183
2.47,187
2.47,192
2.48,195
2.48,195
2.48,208
2.48,215
2.48,212
2.48,210
2.49,207
2.49,208
2.49,207
2.49,208
2.49,213
2.49,218
2.49,212
2.5,210
2.5,206
2.5,203
2.5,203
2.5,202
2.5,204
2.51,216
2.51,230
2.51,228
2.51,231
2.51,232
2.51,228
2.52,235
2.52,232
2.52,227
2.52,222
2.52,220
2.52,227
2.53,228
2.53,234
2.53,230
2.53,223
2.53,219
2.53,217
2.54,213
2.54,217
2.54,230
2.54,246
2.54,254
2.54,284
2.54,284
2.55,280
2.55,296
2.55,291
2.55,288
2.55,282
2.55,287
2.56,296
2.56,291
2.56,304
2.56,315
2.56,306
2.56,298
2.57,290
2.57,284
2.57,289
2.57,304
2.57,303
2.57,315
2.58,309
2.58,299
2.58,292
2.58,283
2.58,277
2.58,279
2.58,282
2.59,280
2.59,290
2.59,290
2.59,298
2.59,304
2.59,305
2.6,311
2.6,313
2.6,317
2.6,318
2.6,318
2.6,318
2.61,337
2.61,329
2.61,331
2.61,328
2.61,329
2.61,336
2.62,345
2.62,353
2.62,348
2.62,376
2.62,385
2.62,407
2.62,402
2.63,408
2.63,409
2.63,429
2.63,429
2.63,431
2.63,423
2.64,435
2.64,426
2.64,438
2.64,436
2.64,421
2.64,429
2.64,429
2.65,444
2.65,450
2.65,452
2.65,442
2.65,434
2.66,441
2.66,434
2.66,432
2.66,418
2.66,416
2.66,414
2.66,416
2.67,409
2.67,414
2.67,407
2.67,409
2.67,408
2.67,412
2.68,432
2.68,429
2.68,421
2.68,411
2.68,407
2.68,408
2.68,405
2.69,405
2.69,432
2.69,431
2.69,428
2.69,413
2.7,407
2.7,418
2.7,421
2.7,456
2.7,453
2.7,467
2.7,471
2.71,473
2.71,514
2.71,537
2.71,546
2.71,533
2.71,532
2.72,542
2.72,551
2.72,538
2.72,527
2.72,526
2.72,513
2.73,504
2.73,509
2.73,505
2.73,495
2.73,494
2.73,482
2.74,474
2.74,468
2.74,464
2.74,451
2.74,442
2.74,457
2.74,456
2.75,456
2.75,443
2.75,429
2.75,429
2.75,459
2.75,469
2.76,479
2.76,484
2.76,541
2.76,552
2.76,562
2.76,550
2.77,536
2.77,521
2.77,509
2.77,511
2.77,509
2.77,512
2.78,536
2.78,550
2.78,552
2.78,561
2.78,556
2.78,549
2.78,535
2.79,521
2.79,506
2.79,494
2.79,485
2.79,494
2.79,486
2.8,481
2.8,486
2.8,477
2.8,475
2.8,464
2.8,458
2.81,445
2.81,434
2.81,430
2.81,430
2.81,448
2.81,440
2.81,434
2.82,426
2.82,432
2.82,441
2.82,445
2.82,448
2.82,448
2.83,487
2.83,501
2.83,507
2.83,493
2.83,486
2.83,474
2.84,466
2.84,453
2.84,454
2.84,479
2.84,491
2.84,486
2.85,479
2.85,485
2.85,473
2.85,457
2.85,446
2.85,446
2.85,441
2.86,435
2.86,441
2.86,451
2.86,482
2.86,477
2.86,488
2.87,483
2.87,483
2.87,471
2.87,471
2.87,471
2.87,461
2.88,449
2.88,451
2.88,478
2.88,481
2.88,479
2.88,467
2.89,454
2.89,455
2.89,446
2.89,447
2.89,450
2.89,445
2.89,450
2.9,448
2.9,436
2.9,432
2.9,437
2.9,437
2.9,443
2.91,428
2.91,418
2.91,423
2.91,418
2.91,413
2.91,417
2.92,412
2.92,403
2.92,397
2.92,385
2.92,385
2.92,394
2.93,390
2.93,398
2.93,401
2.93,407
2.93,400
2.93,394
2.93,385
2.94,382
2.94,388
2.94,380
2.94,371
2.94,361
2.95,353
2.95,352
2.95,347
2.95,340
2.95,341
2.95,347
2.95,355
2.96,365
2.96,366
2.96,356
2.96,346
2.96,340
2.96,338
2.97,356
2.97,352
2.97,375
2.97,397
2.97,403
2.97,402
2.97,399
2.98,392
2.98,402
2.98,411
2.98,409
2.98,407
2.98,415
2.98,412
2.99,401
2.99,402
2.99,413
2.99,419
2.99,412
3.0,404
3.0,396
3.0,402
3.0,397
3.0,385
3.0,384
3.01,379
3.01,392
3.01,398
3.01,400
3.01,398
3.01,426
3.01,430
3.02,433
3.02,449
3.02,447
3.02,449
3.02,450
3.02,455
3.03,481
3.03,481
3.03,483
3.03,475
3.03,466
3.03,454
3.04,442
3.04,437
3.04,431
3.04,420
3.04,415
3.04,412
3.05,402
3.05,397
3.05,388
3.05,380
3.05,371
3.05,368
3.05,371
3.06,375
3.06,369
3.06,364
3.06,353
3.06,349
3.06,353
3.07,362
3.07,365
3.07,359
3.07,361
3.07,358
3.07,353
3.08,353
3.08,360
3.08,361
3.08,356
3.08,353
3.08,375
3.09,375
3.09,371
3.09,377
3.09,377
3.09,376
3.09,367
3.09,358
3.1,361
3.1,354
3.1,349
3.1,343
3.1,333
3.1,324
3.11,335
3.11,356
3.11,365
3.11,384
3.11,376
3.11,368
3.12,363
3.12,362
3.12,356
3.12,344
3.12,333
3.12,324
3.13,315
3.13,311
3.13,308
3.13,300
3.13,299
3.13,294
3.13,292
3.14,291
3.14,307
3.14,303
3.14,295
3.14,296
3.14,289
3.15,287
3.15,301
3.15,299
3.15,303
3.15,299
3.15,300
3.16,291
3.16,283
3.16,281
3.16,283
3.16,284
3.16,300
3.17,308
3.17,328
3.17,334
3.17,360
3.17,372
3.17,368
3.17,356
3.18,344
3.18,336
3.18,333
3.18,334
3.18,329
3.18,324
3.19,315
3.19,310
3.19,301
3.19,293
3.19,285
3.19,277
3.2,273
3.2,265
3.2,272
3.2,272
3.2,278
3.2,278
3.21,270
3.21,264
3.21,255
3.21,247
3.21,246
3.21,246
3.21,242
3.22,253
3.22,257
3.22,281
3.22,292
3.22,299
3.22,301
3.23,300
3.23,299
3.23,291
3.23,289
3.23,284
3.23,280
3.24,274
3.24,278
3.24,278
3.24,287
3.24,290
3.24,280
3.25,273
3.25,268
3.25,261
3.25,256
3.25,254
3.25,249
3.26,249
3.26,244
3.26,245
3.26,242
3.26,239
3.26,236
3.26,230
3.27,226
3.27,222
3.27,217
3.27,216
3.27,210
3.27,207
3.28,203
3.28,198
3.28,196
3.28,192
3.28,187
3.28,189
3.28,185
3.29,181
3.29,177
3.29,176
3.29,174
3.29,173
3.3,170
3.3,166
3.3,163
3.3,160
3.3,158
3.3,156
3.3,154
3.31,151
3.31,148
3.31,144
3.31,143
3.31,150
3.31,150
3.32,147
3.32,150
3.32,164
3.32,169
3.32,188
3.32,197
3.32,199
3.33,195
3.33,194
3.33,190
3.33,187
3.33,183
3.34,180
3.34,176
3.34,176
3.34,171
3.34,167
3.34,163
3.34,159
3.35,156
3.35,151
3.35,149
3.35,147
3.35,145
3.35,145
3.36,141
3.36,140
3.36,137
3.36,133
3.36,133
3.36,130
3.36,127
3.37,126
3.37,124
3.37,124
3.37,122
3.37,120
3.38,117
3.38,115
3.38,112
3.38,111
3.38,110
3.38,108
3.38,115
3.39,116
3.39,113
3.39,112
3.39,113
3.39,110
3.39,108
3.4,115
3.4,119
3.4,120
3.4,123
3.4,122
3.4,126
3.4,132
3.41,130
3.41,131
3.41,132
3.41,139
3.41,143
3.42,140
3.42,138
3.42,141
3.42,141
3.42,142
3.42,139
3.42,136
3.43,134
3.43,132
3.43,132
3.43,128
3.43,126
3.43,125
3.44,123
3.44,122
3.44,120
3.44,118
3.44,117
3.44,114
3.45,114
3.45,113
3.45,111
3.45,108
3.45,106
3.45,107
3.45,107
3.46,104
3.46,102
3.46,100
3.46,98
3.46,99
3.46,96
3.47,96
3.47,95
3.47,94
3.47,95
3.47,95
3.47,93
3.48,93
3.48,91
3.48,92
3.48,92
3.48,90
3.48,94
3.48,96
3.49,94
3.49,92
3.49,90
3.49,89
3.49,89
3.49,88
3.49,89
3.5,88
3.5,86
3.5,86
3.5,86
3.5,87
3.5,88
3.51,86
3.51,85
3.51,84
3.51,83
3.51,84
3.51,84
3.52,82
3.52,82
3.52,84
3.52,85
3.52,85
3.52,84
3.52,82
3.53,81
3.53,83
3.53,86
3.53,84
3.53,83
3.53,81
3.54,81
3.54,84
3.54,84
3.54,83
3.54,82
3.54,81
3.55,81
3.55,81
3.55,80
3.55,79
3.55,80
3.55,80
3.55,81
3.56,79
3.56,79
3.56,77
3.56,76
3.56,78
3.56,77
3.56,75
3.57,75
3.57,75
3.57,75
3.57,76
3.57,76
3.57,80
3.58,78
3.58,77
3.58,77
3.58,75
3.58,75
3.58,76
3.59,77
3.59,77
3.59,78
3.59,77
3.59,78
3.59,77
3.59,78
3.6,80
3.6,79
3.6,80
3.6,80
3.6,80
3.6,80
3.61,79
3.61,79
3.61,81
3.61,80
3.61,79
3.61,79
3.61,77
3.62,76
3.62,77
3.62,77
3.62,79
3.62,78
3.62,77
3.62,76
3.63,75
3.63,77
3.63,77
3.63,76
3.63,75
3.63,74
3.64,74
3.64,77
3.64,76
3.64,76
3.64,77
3.64,78
3.65,79
3.65,78
3.65,78
3.65,79
3.65,78
3.65,80
3.65,80
3.66,78
3.66,78
3.66,77
3.66,76
3.66,78
3.66,77
3.67,77
3.67,77
3.67,76
3.67,76
3.67,76
3.67,74
3.68,74
3.68,75
3.68,78
3.68,81
3.68,81
3.68,84
3.68,85
3.69,85
3.69,86
3.69,85
3.69,85
3.69,87
3.69,86
3.69,85
3.7,84
3.7,82
3.7,84
3.7,85
3.7,84
3.7,84
3.71,83
3.71,81
3.71,80
3.71,80
3.71,83
3.71,84
3.72,82
3.72,82
3.72,81
3.72,83
3.72,84
3.72,83
3.72,82
3.73,82
3.73,81
3.73,82
3.73,81
3.73,80
3.73,80
3.74,80
3.74,81
3.74,82
3.74,81
3.74,81
3.74,80
3.74,81
3.75,82
3.75,81
3.75,80
3.75,80
3.75,80
3.75,82
3.76,81
3.76,80
3.76,80
3.76,79
3.76,78
3.76,79
3.76,78
3.77,76
3.77,76
3.77,77
3.77,79
3.77,79
3.77,77
3.78,76
3.78,76
3.78,77
3.78,78
3.78,76
3.78,76
3.78,75
3.79,76
3.79,78
3.79,77
3.79,76
3.79,75
3.79,73
3.8,74
3.8,73
3.8,73
3.8,74
3.8,73
3.8,73
3.81,72
3.81,73
3.81,75
3.81,78
3.81,76
3.81,75
3.81,73
3.82,73
3.82,74
3.82,73
3.82,73
3.82,72
3.82,73
3.82,74
3.83,77
3.83,80
3.83,80
3.83,83
3.83,86
3.83,86
3.84,85
3.84,85
3.84,83
3.84,82
3.84,82
3.84,81
3.85,80
3.85,81
3.85,79
3.85,79
3.85,79
3.85,77
3.85,77
3.86,76
3.86,75
3.86,73
3.86,72
3.86,74
3.86,75
3.87,73
3.87,74
3.87,76
3.87,78
3.87,78
3.87,77
3.87,78
3.88,78
3.88,79
3.88,82
3.88,82
3.88,82
3.88,86
3.89,85
3.89,85
3.89,88
3.89,89
3.89,97
3.89,100
3.9,98
3.9,98
3.9,97
3.9,98
3.9,99
3.9,97
3.9,97
3.91,97
3.91,94
3.91,93
3.91,92
3.91,92
3.91,92
3.91,91
3.92,93
3.92,96
3.92,94
3.92,92
3.92,90
3.92,92
3.93,94
3.93,93
3.93,91
3.93,90
3.93,88
3.93,87
3.94,85
3.94,84
3.94,87
3.94,86
3.94,84
3.94,82
3.94,81
3.95,82
3.95,81
3.95,80
3.95,79
3.95,80
3.95,79
3.95,79
3.96,78
3.96,78
3.96,80
3.96,81
3.96,79
3.96,76
3.97,74
3.97,74
3.97,77
3.97,80
3.97,91
3.97,91
3.98,98
3.98,109
3.98,107
3.98,104
3.98,105
3.98,105
3.98,102
3.99,99
3.99,97
3.99,96
3.99,98
3.99,96
3.99,97
4.0,98
4.0,100
4.0,106
4.0,115
4.0,119
4.0,130
4.0,138
4.01,141
4.01,138
4.01,137
4.01,134
4.01,135
4.01,138
4.02,141
4.02,139
4.02,138
4.02,143
4.02,144
4.02,147
4.03,147
4.03,144
4.03,143
4.03,141
4.03,138
4.03,141
4.03,140
4.04,135
4.04,132
4.04,128
4.04,125
4.04,123
4.04,124
4.05,124
4.05,122
4.05,121
4.05,122
4.05,123
4.05,122
4.06,120
4.06,122
4.06,128
4.06,142
4.06,146
4.06,142
4.07,141
4.07,146
4.07,163
4.07,188
4.07,188
4.07,189
4.07,191
4.08,192
4.08,204
4.08,211
4.08,210
4.08,222
4.08,227
4.09,222
4.09,217
4.09,210
4.09,203
4.09,200
4.09,202
4.1,199
4.1,193
4.1,191
4.1,196
4.1,205
4.1,205
4.11,198
4.11,194
4.11,193
4.11,192
4.11,195
4.11,199
4.11,194
4.12,193
4.12,198
4.12,195
4.12,192
4.12,194
4.12,195
4.13,201
4.13,196
4.13,201
4.13,218
4.13,217
4.13,226
4.14,241
4.14,240
4.14,235
4.14,229
4.14,231
4.14,230
4.15,228
4.15,229
4.15,227
4.15,227
4.15,225
4.15,226
4.16,233
4.16,270
4.16,288
4.16,287
4.16,280
4.16,271
4.16,268
4.17,281
4.17,290
4.17,292
4.17,289
4.17,291
4.17,283
4.18,276
4.18,282
4.18,281
4.18,279
4.18,276
4.18,276
4.19,285
4.19,278
4.19,274
4.19,270
4.19,271
4.19,277
4.2,307
4.2,315
4.2,313
4.2,315
4.2,305
4.2,296
4.21,300
4.21,311
4.21,315
4.21,335
4.21,329
4.21,323
4.21,314
4.22,313
4.22,312
4.22,332
4.22,339
4.22,341
4.22,345
4.23,358
4.23,373
4.23,395
4.23,386
4.23,378
4.23,368
4.24,358
4.24,358
4.24,360
4.24,356
4.24,361
4.24,364
4.25,369
4.25,369
4.25,364
4.25,354
4.25,350
4.25,343
4.25,338
4.26,331
4.26,321
4.26,323
4.26,339
4.26,336
4.26,331
4.26,337
4.27,329
4.27,345
4.27,349
4.27,342
4.27,344
4.28,344
4.28,341
4.28,335
4.28,336
4.28,335
4.28,329
4.28,320
4.29,325
4.29,316
4.29,316
4.29,313
4.29,304
4.29,300
4.3,306
4.3,305
4.3,318
4.3,321
4.3,311
4.3,308
4.3,300
4.31,299
4.31,306
4.31,312
4.31,321
4.31,325
4.32,314
4.32,304
4.32,300
4.32,297
4.32,309
4.32,309
4.32,323
4.33,320
4.33,318
4.33,315
4.33,308
4.33,301
4.33,297
4.34,291
4.34,300
4.34,305
4.34,343
4.34,348
4.34,342
4.34,342
4.35,345
4.35,345
4.35,352
4.35,367
4.35,389
4.36,413
4.36,416
4.36,427
4.36,423
4.36,418
4.36,418
4.36,416
4.37,425
4.37,415
4.37,408
4.37,405
4.37,414
4.37,408
4.38,405
4.38,412
4.38,404
4.38,393
4.38,393
4.38,385
4.39,384
4.39,376
4.39,374
4.39,367
4.39,366
4.39,361
4.4,352
4.4,347
4.4,341
4.4,336
4.4,335
4.4,334
4.41,348
4.41,346
4.41,334
4.41,325
4.41,320
4.41,315
4.41,310
4.42,302
4.42,301
4.42,296
4.42,288
4.42,288
4.42,290
4.43,324
4.43,341
4.43,384
4.43,381
4.43,384
4.43,376
4.44,369
4.44,357
4.44,345
4.44,336
4.44,327
4.44,320
4.45,319
4.45,328
4.45,331
4.45,331
4.45,321
4.45,313
4.45,306
4.46,301
4.46,299
4.46,297
4.46,294
4.46,294
4.46,296
4.47,291
4.47,285
4.47,279
4.47,273
4.47,269
4.47,265
4.48,261
4.48,265
4.48,265
4.48,259
4.48,260
4.48,264
4.49,264
4.49,268
4.49,270
4.49,279
4.49,300
4.49,317
4.49,313
4.5,310
4.5,307
4.5,306
4.5,303
4.5,298
4.5,310
4.51,313
4.51,328
4.51,319
4.51,312
4.51,302
4.51,293
4.51,284
4.52,278
4.52,271
4.52,268
4.52,270
4.52,288
4.53,325
4.53,331
4.53,337
4.53,336
4.53,329
4.53,325
4.53,318
4.54,307
4.54,297
4.54,302
4.54,311
4.54,318
4.54,315
4.55,312
4.55,337
4.55,342
4.55,350
4.55,360
4.55,378
4.55,390
4.56,416
4.56,411
4.56,407
4.56,408
4.56,396
4.56,382
4.57,370
4.57,368
4.57,376
4.57,385
4.57,401
4.57,407
4.58,418
4.58,426
4.58,436
4.58,427
4.58,413
4.58,400
4.59,390
4.59,385
4.59,390
4.59,390
4.59,403
4.59,396
4.59,400
4.6,390
4.6,377
4.6,379
4.6,387
4.6,392
4.6,389
4.61,398
4.61,398
4.61,399
4.61,405
4.61,421
4.61,414
4.62,405
4.62,406
4.62,412
4.62,405
4.62,423
4.62,440
4.63,437
4.63,440
4.63,432
4.63,421
4.63,409
4.63,403
4.64,400
4.64,404
4.64,398
4.64,409
4.64,412
4.64,412
4.64,411
4.65,402
4.65,404
4.65,399
4.65,394
4.65,390
4.66,382
4.66,384
4.66,376
4.66,372
4.66,368
4.66,365
4.66,359
4.67,355
4.67,351
4.67,351
4.67,348
4.67,345
4.67,335
4.68,333
4.68,327
4.68,323
4.68,314
4.68,331
4.68,367
4.68,380
4.69,404
4.69,406
4.69,409
4.69,405
4.69,397
4.7,385
4.7,374
4.7,371
4.7,375
4.7,385
4.7,381
4.7,395
4.71,404
4.71,430
4.71,417
4.71,413
4.71,407
4.71,398
4.72,391
4.72,384
4.72,384
4.72,393
4.72,398
4.72,408
4.72,409
4.73,396
4.73,390
4.73,379
4.73,369
4.73,357
4.73,347
4.74,337
4.74,345
4.74,354
4.74,359
4.74,364
4.74,354
4.75,350
4.75,346
4.75,337
4.75,328
4.75,321
4.75,318
4.76,322
4.76,317
4.76,317
4.76,320
4.76,311
4.76,307
4.76,299
4.77,296
4.77,294
4.77,287
4.77,281
4.77,284
4.77,309
4.78,319
4.78,346
4.78,350
4.78,354
4.78,347
4.78,347
4.79,358
4.79,355
4.79,353
4.79,341
4.79,332
4.79,338
4.8,351
4.8,355
4.8,349
4.8,343
4.8,332
4.8,327
4.8,325
4.81,331
4.81,330
4.81,328
4.81,321
4.81,314
4.81,308
4.82,305
4.82,296
4.82,304
4.82,306
4.82,311
4.82,307
4.83,320
4.83,315
4.83,310
4.83,310
4.83,335
4.83,335
4.84,339
4.84,347
4.84,346
4.84,337
4.84,337
4.84,326
4.84,331
4.85,344
4.85,339
4.85,342
4.85,337
4.85,333
4.85,333
4.86,332
4.86,354
4.86,349
4.86,346
4.86,347
4.86,353
4.87,356
4.87,352
4.87,343
4.87,348
4.87,351
4.87,342
4.88,336
4.88,344
4.88,353
4.88,349
4.88,349
4.88,345
4.89,341
4.89,333
4.89,325
4.89,316
4.89,308
4.89,303
4.89,294
4.9,285
4.9,276
4.9,278
4.9,277
4.9,271
4.9,270
4.91,273
4.91,269
4.91,264
4.91,261
4.91,261
4.91,256
4.92,256
4.92,252
4.92,252
4.92,251
4.92,253
4.92,277
4.93,282
4.93,302
4.93,311
4.93,309
4.93,302
4.93,303
4.93,297
4.94,288
4.94,282
4.94,281
4.94,282
4.94,277
4.94,270
4.95,269
4.95,286
4.95,289
4.95,291
4.95,285
4.95,277
4.96,277
4.96,269
4.96,263
4.96,257
4.96,251
4.96,249
4.97,243
4.97,241
4.97,243
4.97,242
4.97,240
4.97,234
4.97,226
4.98,220
4.98,213
4.98,210
4.98,214
4.98,215
4.98,212
4.99,212
4.99,225
4.99,225
4.99,240
4.99,250
4.99,252
5.0,247
5.0,247
5.0,241
5.0,236
5.0,230
5.0,224
5.01,216
5.01,211
5.01,208
5.01,209
5.01,203
5.01,200
5.01,200
5.02,202
5.02,204
5.02,210
5.02,208
5.02,204
5.02,198
5.03,200
5.03,200
5.03,198
5.03,199
5.03,205
5.03,222
5.03,232
5.04,226
5.04,225
5.04,223
5.04,219
5.04,214
5.05,211
5.05,207
5.05,201
5.05,198
5.05,195
5.05,192
5.05,189
5.05,186
5.06,180
5.06,175
5.06,169
5.06,169
5.06,172
5.07,166
5.07,163
5.07,159
5.07,157
5.07,162
5.07,158
5.07,158
5.08,161
5.08,160
5.08,173
5.08,177
5.08,183
5.09,180
5.09,176
5.09,171
5.09,167
5.09,171
5.09,176
5.09,176
5.09,181
5.1,192
5.1,190
5.1,190
5.1,189
5.1,185
5.11,189
5.11,186
5.11,180
5.11,174
5.11,173
5.11,173
5.11,169
5.12,164
5.12,160
5.12,162
5.12,164
5.12,160
5.13,155
5.13,152
5.13,149
5.13,150
5.13,147
5.13,143
5.13,141
5.14,139
5.14,138
5.14,137
5.14,137
5.14,135
5.14,135
5.15,141
5.15,143
5.15,140
5.15,138
5.15,134
5.15,132
5.15,133
5.16,131
5.16,129
5.16,127
5.16,124
5.16,123
5.17,120
5.17,121
5.17,128
5.17,132
5.17,129
5.17,130
5.17,141
5.18,144
5.18,142
5.18,139
5.18,138
5.18,133
5.18,132
5.19,133
5.19,133
5.19,130
5.19,127
5.19,123
5.19,121
5.19,119
5.2,122
5.2,124
5.2,124
5.2,128
5.2,127
5.2,127
5.21,125
5.21,122
5.21,118
5.21,115
5.21,115
5.21,116
5.22,114
5.22,112
5.22,112
5.22,110
5.22,110
5.22,108
5.23,105
5.23,103
5.23,100
5.23,102
5.23,100
5.23,98
5.23,98
5.24,97
5.24,98
5.24,98
5.24,96
5.24,96
5.24,95
5.25,95
5.25,95
5.25,92
5.25,93
5.25,94
5.25,93
5.26,94
5.26,93
5.26,92
5.26,92
5.26,92
5.26,93
5.26,93
5.27,90
5.27,90
5.27,90
5.27,90
5.27,91
5.27,88
5.28,89
5.28,87
5.28,85
5.28,85
5.28,84
5.28,83
5.28,82
5.28,81
5.29,82
5.29,82
5.29,81
5.29,82
5.29,81
5.3,80
5.3,82
5.3,82
5.3,80
5.3,81
5.3,83
5.3,85
5.31,85
5.31,84
5.31,84
5.31,82
5.31,82
5.31,85
5.32,84
5.32,82
5.32,82
5.32,82
5.32,84
5.32,83
5.32,83
5.33,83
5.33,83
5.33,84
5.33,84
5.33,82
5.33,83
5.34,84
5.34,84
5.34,85
5.34,83
5.34,84
5.34,83
5.34,81
5.35,83
5.35,83
5.35,81
5.35,80
5.35,79
5.35,80
5.36,81
5.36,80
5.36,80
5.36,78
5.36,78
5.36,81
5.36,81
5.37,81
5.37,81
5.37,81
5.37,81
5.37,81
5.37,80
5.38,79
5.38,77
5.38,77
5.38,79
5.38,78
5.38,77
5.39,78
5.39,77
5.39,80
5.39,79
5.39,79
5.39,79
5.39,78
5.4,78
5.4,79
5.4,78
5.4,77
5.4,78
5.4,79
5.41,81
5.41,80
5.41,79
5.41,79
5.41,78
5.41,79
5.41,80
5.42,78
5.42,78
5.42,78
5.42,78
5.42,79
5.42,78
5.43,77
5.43,76
5.43,76
5.43,77
5.43,77
5.43,75
5.43,76
5.44,76
5.44,77
5.44,77
5.44,76
5.44,75
5.44,75
5.45,74
5.45,76
5.45,76
5.45,74
