Time_s,ADC
0.0,126
0.0,123
0.0,125
0.0,122
0.01,124
0.01,122
0.01,124
0.01,120
0.01,119
0.01,125
0.01,128
0.02,125
0.02,126
0.02,126
0.02,126
0.02,125
0.03,125
0.03,126
0.03,122
0.03,124
0.03,126
0.03,126
0.03,124
0.03,125
0.04,123
0.04,124
0.04,122
0.04,123
0.04,119
0.05,118
0.05,124
0.05,126
0.05,124
0.05,124
0.05,123
0.05,123
0.06,122
0.06,121
0.06,121
0.06,117
0.06,120
0.06,125
0.07,125
0.07,123
0.07,125
0.07,123
0.07,123
0.07,121
0.08,122
0.08,118
0.08,117
0.08,122
0.08,125
0.08,124
0.08,123
0.09,124
0.09,124
0.09,124
0.09,122
0.09,121
0.1,118
0.1,121
0.1,127
0.1,130
0.1,127
0.1,127
0.1,126
0.11,127
0.11,125
0.11,126
0.11,123
0.11,120
0.11,125
0.12,127
0.12,127
0.12,125
0.12,125
0.12,126
0.12,127
0.12,125
0.13,123
0.13,120
0.13,125
0.13,129
0.13,128
0.13,126
0.14,128
0.14,127
0.14,128
0.14,125
0.14,127
0.14,123
0.15,121
0.15,125
0.15,127
0.15,125
0.15,124
0.15,124
0.15,123
0.16,122
0.16,123
0.16,120
0.16,118
0.16,121
0.16,124
0.17,124
0.17,122
0.17,123
0.17,122
0.17,122
0.17,120
0.18,121
0.18,117
0.18,117
0.18,121
0.18,122
0.18,119
0.19,120
0.19,120
0.19,120
0.19,119
0.19,119
0.19,118
0.19,115
0.2,122
0.2,125
0.2,125
0.2,123
0.2,125
0.2,125
0.21,128
0.21,126
0.21,127
0.21,123
0.21,126
0.21,131
0.22,133
0.22,130
0.22,130
0.22,130
0.22,128
0.22,125
0.22,123
0.23,120
0.23,117
0.23,121
0.23,123
0.23,122
0.23,122
0.24,123
0.24,122
0.24,123
0.24,121
0.24,121
0.24,117
0.25,118
0.25,122
0.25,124
0.25,121
0.25,123
0.25,123
0.26,124
0.26,122
0.26,121
0.26,119
0.26,118
0.26,123
0.26,126
0.27,126
0.27,125
0.27,125
0.27,125
0.27,125
0.27,123
0.28,122
0.28,118
0.28,120
0.28,123
0.28,124
0.28,122
0.29,122
0.29,121
0.29,123
0.29,121
0.29,122
0.29,119
0.29,117
0.3,121
0.3,123
0.3,122
0.3,120
0.3,120
0.3,120
0.31,120
0.31,118
0.31,118
0.31,114
0.31,117
0.31,121
0.32,121
0.32,119
0.32,120
0.32,119
0.32,121
0.32,119
0.33,120
0.33,117
0.33,116
0.33,121
0.33,124
0.33,122
0.34,123
0.34,123
0.34,123
0.34,122
0.34,122
0.34,121
0.35,117
0.35,121
0.35,125
0.35,125
0.35,123
0.35,124
0.35,125
0.36,127
0.36,124
0.36,124
0.36,121
0.36,121
0.36,125
0.37,127
0.37,125
0.37,125
0.37,123
0.37,124
0.37,124
0.37,122
0.38,119
0.38,117
0.38,123
0.38,127
0.38,126
0.38,125
0.39,126
0.39,125
0.39,125
0.39,123
0.39,122
0.4,119
0.4,120
0.4,125
0.4,126
0.4,122
0.4,124
0.4,123
0.4,124
0.41,122
0.41,121
0.41,119
0.41,116
0.41,121
0.41,124
0.42,125
0.42,122
0.42,122
0.42,121
0.42,122
0.42,119
0.43,119
0.43,116
0.43,117
0.43,121
0.43,120
0.43,117
0.44,118
0.44,117
0.44,118
0.44,117
0.44,118
0.44,115
0.45,113
0.45,119
0.45,122
0.45,121
0.45,119
0.45,121
0.45,121
0.46,121
0.46,120
0.46,119
0.46,115
0.46,119
0.46,124
0.47,125
0.47,122
0.47,124
0.47,123
0.47,123
0.47,121
0.48,122
0.48,118
0.48,118
0.48,123
0.48,125
0.48,123
0.49,123
0.49,124
0.49,123
0.49,124
0.49,121
0.49,118
0.5,115
0.5,120
0.5,126
0.5,127
0.5,124
0.5,125
0.5,124
0.51,126
0.51,124
0.51,124
0.51,121
0.51,119
0.51,122
0.52,124
0.52,121
0.52,121
0.52,121
0.52,122
0.52,121
0.52,120
0.53,118
0.53,115
0.53,119
0.53,123
0.53,124
0.54,122
0.54,123
0.54,124
0.54,124
0.54,121
0.54,121
0.54,117
0.55,117
0.55,121
0.55,123
0.55,120
0.55,120
0.55,119
0.56,122
0.56,122
0.56,120
0.56,118
0.56,116
0.56,122
0.56,125
0.57,122
0.57,121
0.57,122
0.57,122
0.57,123
0.57,122
0.58,122
0.58,119
0.58,121
0.58,125
0.58,126
0.58,123
0.59,125
0.59,125
0.59,127
0.59,126
0.59,126
0.59,123
0.6,122
0.6,128
0.6,132
0.6,131
0.6,130
0.6,131
0.61,131
0.61,132
0.61,130
0.61,129
0.61,125
0.61,127
0.61,130
0.62,130
0.62,127
0.62,128
0.62,127
0.62,128
0.62,126
0.63,127
0.63,123
0.63,122
0.63,127
0.63,130
0.63,128
0.63,128
0.64,128
0.64,128
0.64,128
0.64,126
0.64,125
0.65,121
0.65,124
0.65,126
0.65,125
0.65,123
0.65,125
0.65,123
0.66,124
0.66,122
0.66,124
0.66,121
0.66,119
0.66,122
0.67,123
0.67,120
0.67,121
0.67,122
0.67,122
0.67,121
0.68,119
0.68,117
0.68,114
0.68,121
0.68,126
0.68,125
0.69,124
0.69,125
0.69,125
0.69,126
0.69,124
0.69,127
0.69,123
0.7,123
0.7,127
0.7,129
0.7,125
0.7,125
0.7,124
0.7,125
0.71,124
0.71,122
0.71,120
0.71,117
0.71,121
0.71,123
0.72,122
0.72,120
0.72,121
0.72,122
0.72,122
0.72,120
0.73,119
0.73,116
0.73,117
0.73,120
0.73,122
0.73,119
0.74,120
0.74,118
0.74,119
0.74,117
0.74,118
0.74,115
0.75,112
0.75,116
0.75,118
0.75,117
0.75,116
0.75,117
0.75,117
0.76,116
0.76,116
0.76,116
0.76,114
0.76,116
0.76,120
0.77,121
0.77,119
0.77,120
0.77,118
0.77,119
0.77,117
0.78,115
0.78,112
0.78,111
0.78,115
0.78,114
0.78,112
0.79,111
0.79,111
0.79,111
0.79,111
0.79,109
0.79,109
0.8,105
0.8,109
0.8,113
0.8,113
0.8,111
0.8,114
0.8,113
0.81,115
0.81,114
0.81,115
0.81,112
0.81,112
0.81,118
0.82,119
0.82,117
0.82,117
0.82,118
0.82,119
0.82,118
0.83,117
0.83,115
0.83,112
0.83,115
0.83,117
0.83,116
0.83,114
0.84,115
0.84,114
0.84,116
0.84,113
0.84,113
0.84,110
0.85,110
0.85,116
0.85,119
0.85,116
0.85,117
0.85,117
0.86,117
0.86,117
0.86,116
0.86,114
0.86,111
0.86,116
0.86,118
0.87,117
0.87,116
0.87,117
0.87,115
0.87,116
0.88,114
0.88,114
0.88,111
0.88,112
0.88,115
0.88,115
0.88,113
0.89,114
0.89,114
0.89,115
0.89,114
0.89,113
0.89,111
0.9,111
0.9,117
0.9,119
0.9,116
0.9,114
0.9,116
0.9,117
0.91,118
0.91,115
0.91,114
0.91,111
0.91,113
0.91,117
0.92,118
0.92,116
0.92,117
0.92,116
0.92,117
0.92,116
0.93,116
0.93,113
0.93,111
0.93,118
0.93,121
0.93,119
0.93,119
0.94,121
0.94,123
0.94,124
0.94,122
0.94,122
0.95,119
0.95,123
0.95,127
0.95,127
0.95,124
0.95,125
0.95,124
0.96,125
0.96,122
0.96,124
0.96,120
0.96,118
0.96,122
0.96,124
0.97,121
0.97,122
0.97,123
0.97,124
0.97,124
0.98,123
0.98,121
0.98,117
0.98,120
0.98,122
0.98,123
0.98,121
0.99,124
0.99,122
0.99,122
0.99,120
0.99,121
0.99,118
1.0,117
1.0,122
1.0,123
1.0,120
1.0,122
1.0,122
1.0,121
1.01,119
1.01,117
1.01,115
1.01,112
1.01,115
1.01,119
1.02,119
1.02,117
1.02,119
1.02,118
1.02,119
1.02,117
1.03,117
1.03,114
1.03,114
1.03,118
1.03,120
1.03,117
1.04,120
1.04,118
1.04,119
1.04,118
1.04,118
1.04,116
1.04,113
1.05,118
1.05,119
1.05,116
1.05,116
1.05,118
1.05,117
1.06,117
1.06,116
1.06,118
1.06,116
1.06,119
1.06,123
1.07,124
1.07,122
1.07,122
1.07,123
1.07,126
1.07,125
1.08,126
1.08,123
1.08,120
1.08,125
1.08,128
1.08,127
1.09,126
1.09,127
1.09,127
1.09,129
1.09,127
1.09,124
1.1,120
1.1,125
1.1,130
1.1,131
1.1,128
1.1,132
1.1,131
1.11,128
1.11,125
1.11,125
1.11,122
1.11,120
1.11,124
1.12,126
1.12,124
1.12,124
1.12,125
1.12,126
1.12,127
1.12,124
1.13,123
1.13,119
1.13,124
1.13,126
1.13,124
1.13,125
1.14,130
1.14,131
1.14,131
1.14,130
1.14,131
1.14,129
1.15,129
1.15,131
1.15,128
1.15,130
1.15,138
1.15,139
1.16,135
1.16,132
1.16,128
1.16,136
1.16,146
1.16,147
1.16,155
1.17,156
1.17,157
1.17,168
1.17,201
1.17,223
1.17,219
1.18,219
1.18,231
1.18,238
1.18,242
1.18,241
1.18,259
1.19,269
1.19,265
1.19,269
1.19,271
1.19,270
1.2,273
1.2,275
1.2,272
1.2,270
1.2,275
1.2,290
1.2,301
1.21,314
1.21,312
1.21,348
1.21,379
1.21,382
1.21,373
1.22,367
1.22,381
1.22,389
1.22,379
1.22,377
1.22,391
1.22,400
1.23,403
1.23,408
1.23,396
1.23,386
1.23,391
1.23,398
1.24,399
1.24,399
1.24,407
1.24,418
1.24,418
1.24,412
1.25,403
1.25,400
1.25,402
1.25,395
1.25,405
1.25,409
1.25,399
1.26,390
1.26,398
1.26,409
1.26,420
1.26,415
1.26,423
1.27,435
1.27,454
1.27,445
1.27,435
1.27,449
1.27,465
1.27,468
1.28,453
1.28,438
1.28,428
1.28,439
1.28,442
1.29,439
1.29,425
1.29,428
1.29,439
1.29,436
1.29,464
1.29,503
1.3,543
1.3,576
1.3,579
1.3,583
1.3,617
1.3,620
1.31,601
1.31,606
1.31,604
1.31,613
1.31,653
1.31,700
1.32,691
1.32,709
1.32,721
1.32,704
1.32,686
1.32,674
1.33,690
1.33,678
1.33,672
1.33,679
1.33,680
1.33,701
1.34,697
1.34,686
1.34,682
1.34,681
1.34,677
1.34,657
1.35,637
1.35,620
1.35,611
1.35,610
1.35,612
1.35,595
1.35,593
1.36,584
1.36,565
1.36,548
1.36,534
1.36,534
1.36,567
1.37,560
1.37,547
1.37,538
1.37,523
1.37,538
1.37,537
1.37,553
1.38,579
1.38,578
1.38,604
1.38,607
1.38,614
1.38,642
1.39,668
1.39,679
1.39,663
1.39,651
1.39,632
1.39,632
1.4,621
1.4,603
1.4,598
1.4,653
1.4,647
1.4,637
1.4,671
1.41,692
1.41,680
1.41,669
1.41,668
1.41,650
1.41,630
1.42,623
1.42,628
1.42,619
1.42,607
1.42,636
1.42,658
1.43,653
1.43,697
1.43,712
1.43,706
1.43,718
1.43,698
1.44,675
1.44,660
1.44,641
1.44,620
1.44,602
1.44,602
1.45,598
1.45,617
1.45,618
1.45,660
1.45,665
1.45,677
1.46,673
1.46,661
1.46,657
1.46,646
1.46,699
1.46,716
1.47,733
1.47,726
1.47,731
1.47,739
1.47,729
1.47,712
1.47,703
1.48,685
1.48,674
1.48,656
1.48,648
1.48,655
1.48,659
1.49,645
1.49,691
1.49,727
1.49,712
1.49,730
1.49,723
1.5,701
1.5,694
1.5,686
1.5,672
1.5,668
1.5,655
1.5,649
1.51,654
1.51,638
1.51,642
1.51,671
1.51,658
1.51,656
1.52,657
1.52,669
1.52,658
1.52,664
1.52,675
1.52,670
1.52,650
1.53,629
1.53,612
1.53,646
1.53,657
1.53,661
1.54,655
1.54,653
1.54,658
1.54,643
1.54,627
1.54,606
1.54,591
1.55,576
1.55,573
1.55,582
1.55,603
1.55,609
1.55,594
1.56,577
1.56,567
1.56,570
1.56,557
1.56,542
1.56,534
1.57,522
1.57,521
1.57,547
1.57,559
1.57,553
1.57,546
1.58,549
1.58,561
1.58,559
1.58,553
1.58,548
1.58,563
1.59,552
1.59,537
1.59,538
1.59,546
1.59,544
1.59,545
1.59,535
1.6,539
1.6,547
1.6,588
1.6,602
1.6,606
1.6,587
1.61,581
1.61,569
1.61,570
1.61,556
1.61,550
1.61,573
1.61,561
1.62,561
1.62,551
1.62,552
1.62,555
1.62,548
1.63,539
1.63,553
1.63,561
1.63,570
1.63,586
1.63,577
1.63,586
1.64,588
1.64,574
1.64,568
1.64,583
1.64,583
1.64,586
1.65,603
1.65,615
1.65,618
1.65,665
1.65,680
1.65,697
1.65,690
1.66,692
1.66,672
1.66,671
1.66,658
1.66,647
1.66,627
1.67,606
1.67,602
1.67,618
1.67,605
1.67,611
1.67,597
1.68,581
1.68,570
1.68,566
1.68,562
1.68,579
1.68,588
1.68,575
1.69,557
1.69,553
1.69,575
1.69,574
1.69,561
1.7,546
1.7,536
1.7,532
1.7,519
1.7,510
1.7,494
1.7,488
1.71,480
1.71,474
1.71,459
1.71,454
1.71,452
1.72,453
1.72,455
1.72,462
1.72,470
1.72,499
1.72,501
1.72,565
1.73,563
1.73,562
1.73,549
1.73,554
1.73,538
1.73,527
1.74,512
1.74,501
1.74,491
1.74,490
1.74,485
1.74,479
1.74,496
1.75,508
1.75,504
1.75,506
1.75,494
1.75,492
1.75,491
1.76,478
1.76,464
1.76,450
1.76,436
1.76,431
1.76,429
1.77,433
1.77,429
1.77,417
1.77,404
1.77,392
1.77,387
1.77,394
1.78,398
1.78,412
1.78,416
1.78,422
1.78,417
1.78,424
1.79,450
1.79,462
1.79,465
1.79,464
1.79,472
1.79,468
1.8,455
1.8,444
1.8,431
1.8,418
1.8,441
1.8,451
1.81,451
1.81,463
1.81,504
1.81,505
1.81,515
1.81,513
1.82,496
1.82,492
1.82,479
1.82,466
1.82,458
1.82,466
1.82,462
1.83,467
1.83,455
1.83,442
1.83,430
1.83,422
1.84,413
1.84,402
1.84,395
1.84,422
1.84,433
1.84,425
1.84,424
1.85,434
1.85,433
1.85,423
1.85,409
1.85,398
1.85,386
1.86,384
1.86,394
1.86,394
1.86,392
1.86,383
1.86,374
1.86,371
1.87,372
1.87,373
1.87,367
1.87,362
1.87,370
1.87,369
1.88,369
1.88,380
1.88,395
1.88,387
1.88,375
1.88,373
1.89,368
1.89,357
1.89,352
1.89,358
1.89,370
1.89,362
1.9,368
1.9,366
1.9,371
1.9,391
1.9,392
1.9,396
1.9,398
1.91,412
1.91,402
1.91,399
1.91,398
1.91,392
1.91,402
1.91,393
1.92,396
1.92,393
1.92,391
1.92,391
1.92,399
1.93,389
1.93,387
1.93,380
1.93,371
1.93,371
1.93,360
1.93,353
1.94,347
1.94,339
1.94,347
1.94,350
1.94,360
1.95,352
1.95,348
1.95,342
1.95,335
1.95,331
1.95,373
1.95,402
1.96,395
1.96,412
1.96,424
1.96,413
1.96,415
1.96,428
1.97,420
1.97,416
1.97,425
1.97,419
1.97,409
1.97,403
1.98,403
1.98,390
1.98,377
1.98,378
1.98,379
1.98,377
1.98,367
1.99,359
1.99,352
1.99,349
1.99,340
1.99,341
1.99,345
2.0,344
2.0,357
2.0,362
2.0,380
2.0,372
2.0,359
2.01,367
2.01,368
2.01,366
2.01,355
2.01,355
2.01,349
2.02,351
2.02,354
2.02,358
2.02,382
2.02,403
2.02,440
2.03,443
2.03,433
2.03,446
2.03,459
2.03,451
2.03,439
2.03,430
2.04,422
2.04,418
2.04,419
2.04,418
2.04,417
2.04,413
2.05,437
2.05,443
2.05,430
2.05,422
2.05,416
2.05,408
2.06,399
2.06,399
2.06,406
2.06,403
2.06,397
2.06,391
2.06,387
2.07,378
2.07,376
2.07,380
2.07,373
2.07,368
2.07,362
2.08,358
2.08,354
2.08,349
2.08,342
2.08,331
2.08,335
2.09,340
2.09,340
2.09,345
2.09,370
2.09,382
2.09,374
2.1,396
2.1,423
2.1,446
2.1,463
2.1,459
2.1,453
2.1,444
2.11,438
2.11,432
2.11,425
2.11,428
2.11,423
2.11,418
2.12,407
2.12,393
2.12,386
2.12,401
2.12,410
2.12,406
2.13,403
2.13,400
2.13,396
2.13,392
2.13,387
2.13,393
2.14,393
2.14,403
2.14,414
2.14,472
2.14,485
2.14,509
2.15,517
2.15,507
2.15,498
2.15,489
2.15,478
2.15,476
2.15,482
2.16,473
2.16,481
2.16,474
2.16,480
2.16,475
2.16,504
2.17,516
2.17,502
2.17,491
2.17,476
2.17,483
2.17,483
2.17,479
2.18,466
2.18,470
2.18,458
2.18,443
2.18,440
2.19,431
2.19,418
2.19,409
2.19,404
2.19,404
2.19,391
2.19,384
2.2,388
2.2,388
2.2,378
2.2,383
2.2,387
2.2,386
2.21,387
2.21,381
2.21,385
2.21,381
2.21,375
2.21,364
2.21,357
2.22,363
2.22,372
2.22,383
2.22,396
2.22,391
2.23,385
2.23,385
2.23,391
2.23,381
2.23,378
2.23,375
2.23,369
2.24,369
2.24,365
2.24,382
2.24,385
2.24,393
2.24,405
2.25,396
2.25,393
2.25,384
2.25,376
2.25,376
2.25,372
2.26,382
2.26,373
2.26,369
2.26,365
2.26,378
2.26,383
2.27,376
2.27,374
2.27,367
2.27,356
2.27,344
2.27,337
2.27,332
2.28,334
2.28,348
2.28,348
2.28,346
2.28,354
2.28,384
2.29,382
2.29,384
2.29,389
2.29,396
2.29,405
2.29,410
2.3,425
2.3,420
2.3,439
2.3,444
2.3,440
2.3,453
2.31,456
2.31,457
2.31,450
2.31,436
2.31,424
2.31,415
2.31,407
2.32,399
2.32,390
2.32,382
2.32,378
2.32,388
2.32,383
2.33,381
2.33,380
2.33,372
2.33,379
2.33,374
2.33,366
2.34,357
2.34,352
2.34,341
2.34,334
2.34,339
2.34,342
2.34,341
2.35,334
2.35,326
2.35,334
2.35,341
2.35,343
2.35,341
2.36,331
2.36,324
2.36,315
2.36,308
2.36,300
2.36,291
2.37,289
2.37,286
2.37,282
2.37,291
2.37,291
2.37,291
2.38,288
2.38,286
2.38,277
2.38,270
2.38,267
2.38,262
2.38,253
2.39,251
2.39,249
2.39,246
2.39,243
2.39,236
2.4,230
2.4,223
2.4,220
2.4,218
2.4,212
2.4,209
2.4,211
2.41,210
2.41,210
2.41,205
2.41,201
2.41,195
2.41,191
2.42,191
2.42,186
2.42,182
2.42,184
2.42,182
2.42,182
2.42,181
2.43,175
2.43,174
2.43,170
2.43,169
2.43,168
2.44,165
2.44,162
2.44,161
2.44,160
2.44,162
2.44,162
2.44,164
2.45,164
2.45,166
2.45,169
2.45,169
2.45,165
2.45,166
2.46,164
2.46,162
2.46,158
2.46,155
2.46,153
2.46,150
2.46,151
2.47,150
2.47,145
2.47,149
2.47,150
2.47,150
2.48,149
2.48,146
2.48,142
2.48,138
2.48,140
2.48,141
2.48,137
2.49,136
2.49,140
2.49,141
2.49,144
2.49,142
2.49,143
2.5,140
2.5,137
2.5,138
2.5,134
2.5,132
2.5,133
2.5,132
2.51,133
2.51,133
2.51,131
2.51,129
2.51,125
2.51,125
2.52,121
2.52,117
2.52,115
2.52,115
2.52,114
2.52,115
2.53,113
2.53,113
2.53,110
2.53,108
2.53,110
2.53,109
2.54,107
2.54,112
2.54,114
2.54,116
2.54,114
2.54,118
2.54,117
2.55,116
2.55,122
2.55,124
2.55,121
2.55,121
2.55,123
2.56,121
2.56,121
2.56,120
2.56,119
2.56,116
2.56,117
2.57,120
2.57,120
2.57,118
2.57,120
2.57,122
2.57,122
2.58,119
2.58,120
2.58,117
2.58,116
2.58,119
2.58,123
2.58,124
2.59,121
2.59,120
2.59,120
2.59,120
2.59,119
2.59,117
2.6,119
2.6,116
2.6,114
2.6,111
2.6,108
2.6,106
2.61,107
2.61,111
2.61,114
2.61,130
2.61,141
2.61,143
2.62,142
2.62,141
2.62,137
2.62,138
2.62,139
2.62,142
2.63,143
2.63,139
2.63,136
2.63,134
2.63,133
2.63,129
2.63,132
2.64,139
2.64,143
2.64,140
2.64,139
2.64,141
2.64,140
2.65,140
2.65,143
2.65,147
2.65,147
2.65,142
2.65,140
2.66,138
2.66,142
2.66,140
2.66,139
2.66,138
2.66,137
2.67,142
2.67,140
2.67,137
2.67,136
2.67,134
2.67,132
2.67,133
2.68,130
2.68,127
2.68,124
2.68,124
2.68,123
2.68,119
2.69,117
2.69,123
2.69,125
2.69,130
2.69,129
2.69,129
2.7,125
2.7,123
2.7,121
2.7,122
2.7,121
2.7,118
2.71,114
2.71,113
2.71,111
2.71,110
2.71,109
2.71,109
2.71,111
2.72,109
2.72,107
2.72,108
2.72,110
2.72,109
2.72,111
2.73,109
2.73,107
2.73,107
2.73,116
2.73,129
2.73,137
2.74,138
2.74,142
2.74,143
2.74,145
2.74,145
2.74,143
2.75,144
2.75,143
2.75,143
2.75,144
2.75,142
2.75,141
2.75,138
2.76,136
2.76,138
2.76,136
2.76,134
2.76,132
2.76,130
2.77,129
2.77,127
2.77,126
2.77,131
2.77,132
2.77,135
2.78,133
2.78,137
2.78,134
2.78,132
2.78,137
2.78,138
2.79,135
2.79,135
2.79,139
2.79,145
2.79,150
2.79,146
2.79,143
2.8,140
2.8,144
2.8,144
2.8,143
2.8,140
2.8,141
2.81,141
2.81,146
2.81,145
2.81,153
2.81,150
2.81,147
2.81,149
2.82,148
2.82,144
2.82,143
2.82,144
2.82,147
2.83,153
2.83,151
2.83,146
2.83,142
2.83,148
2.83,157
2.83,159
2.84,156
2.84,158
2.84,155
2.84,156
2.84,153
2.84,148
2.85,150
2.85,149
2.85,151
2.85,150
2.85,147
2.85,145
2.86,144
2.86,143
2.86,139
2.86,137
2.86,135
2.86,132
2.87,133
2.87,131
2.87,130
2.87,129
2.87,131
2.87,130
2.87,126
2.88,125
2.88,122
2.88,125
2.88,125
2.88,125
2.88,122
2.89,120
2.89,116
2.89,113
2.89,112
2.89,111
2.89,111
2.9,109
2.9,108
2.9,112
2.9,115
2.9,112
2.9,115
2.91,117
2.91,120
2.91,123
2.91,121
2.91,121
2.91,118
2.91,125
2.92,130
2.92,131
2.92,129
2.92,129
2.92,130
2.92,135
2.93,135
2.93,133
2.93,129
2.93,127
2.93,129
2.93,129
2.94,129
2.94,129
2.94,130
2.94,134
2.94,133
2.94,133
2.95,132
2.95,129
2.95,133
2.95,132
2.95,129
2.95,129
2.95,130
2.96,128
2.96,124
2.96,121
2.96,121
2.96,117
2.96,118
2.97,119
2.97,117
2.97,116
2.97,120
2.97,119
2.97,119
2.98,116
2.98,116
2.98,113
2.98,111
2.98,117
2.98,118
2.98,115
2.99,116
2.99,117
2.99,115
2.99,115
2.99,112
2.99,111
3.0,109
3.0,110
3.0,113
3.0,114
3.0,112
3.0,115
3.01,115
3.01,118
3.01,118
3.01,116
3.01,113
3.01,111
3.02,114
3.02,116
3.02,115
3.02,112
3.02,109
3.02,108
3.02,108
3.03,106
3.03,106
3.03,103
3.03,104
3.03,107
3.03,105
3.04,106
3.04,111
3.04,114
3.04,117
3.04,115
3.04,119
3.05,117
3.05,117
3.05,124
3.05,131
3.05,130
3.05,130
3.06,135
3.06,139
3.06,139
3.06,138
3.06,135
3.06,134
3.06,136
3.07,143
3.07,146
3.07,143
3.07,145
3.07,144
3.07,144
3.08,142
3.08,140
3.08,136
3.08,133
3.08,133
3.08,133
3.09,129
3.09,129
3.09,126
3.09,126
3.09,126
3.09,124
3.1,122
3.1,119
3.1,119
3.1,120
3.1,118
3.1,120
3.1,127
3.11,129
3.11,127
3.11,127
3.11,130
3.11,128
3.11,129
3.12,133
3.12,133
3.12,130
3.12,133
3.12,134
3.12,137
3.13,138
3.13,136
3.13,134
3.13,132
3.13,136
3.13,136
3.14,134
3.14,133
3.14,135
3.14,137
3.14,138
3.14,135
3.14,134
3.15,130
3.15,132
3.15,134
3.15,132
3.15,130
3.15,134
3.16,135
3.16,135
3.16,133
3.16,132
3.16,129
3.16,130
3.17,134
3.17,134
3.17,131
3.17,133
3.17,131
3.17,133
3.18,131
3.18,129
3.18,127
3.18,124
3.18,125
3.18,125
3.18,125
3.19,124
3.19,127
3.19,128
3.19,130
3.19,127
3.19,128
3.2,126
3.2,129
3.2,136
3.2,138
3.2,135
3.2,136
3.21,136
3.21,137
3.21,136
3.21,135
3.21,132
3.21,129
3.22,130
3.22,130
3.22,126
3.22,125
3.22,126
3.22,128
3.22,130
3.23,127
3.23,125
3.23,121
3.23,122
3.23,128
3.23,131
3.24,130
3.24,129
3.24,128
3.24,130
3.24,129
3.24,127
3.25,124
3.25,122
3.25,126
3.25,125
3.25,122
3.25,126
3.26,127
3.26,127
3.26,125
3.26,127
3.26,126
3.26,123
3.26,124
3.27,126
3.27,124
3.27,123
3.27,126
3.27,124
3.27,124
3.28,122
3.28,120
3.28,119
3.28,120
3.28,127
3.28,131
3.29,131
3.29,128
3.29,126
3.29,128
3.29,128
3.29,126
3.3,123
3.3,120
3.3,122
3.3,120
3.3,118
3.3,117
3.3,119
3.31,121
3.31,123
3.31,121
3.31,120
3.31,116
3.31,118
3.32,123
3.32,124
3.32,121
3.32,124
3.32,125
3.32,126
3.33,125
3.33,123
3.33,121
3.33,118
3.33,122
3.33,123
3.34,120
3.34,120
3.34,121
3.34,120
3.34,122
3.34,119
3.34,119
3.35,118
3.35,122
3.35,126
3.35,124
3.35,124
3.35,124
3.36,123
3.36,125
3.36,124
3.36,127
3.36,124
3.36,122
3.37,126
3.37,126
3.37,122
3.37,124
3.37,126
3.37,127
3.38,127
3.38,125
3.38,122
3.38,119
3.38,124
3.38,128
3.39,127
3.39,125
3.39,127
3.39,127
3.39,129
3.39,127
3.39,126
3.4,123
3.4,123
3.4,126
3.4,126
3.4,123
3.4,124
3.41,125
3.41,128
3.41,127
3.41,125
3.41,122
3.41,120
3.42,126
3.42,129
3.42,128
3.42,125
3.42,126
3.42,127
3.43,128
3.43,126
3.43,126
3.43,122
3.43,121
3.43,122
3.43,121
3.44,118
3.44,120
3.44,120
3.44,124
3.44,123
3.44,122
3.45,120
3.45,118
3.45,126
3.45,132
3.45,133
3.45,129
3.45,128
3.46,128
3.46,129
3.46,127
3.46,124
3.46,121
3.47,122
3.47,120
3.47,116
3.47,115
3.47,117
3.47,117
3.47,118
3.48,116
3.48,115
3.48,111
3.48,115
3.48,123
3.48,127
3.49,124
3.49,125
3.49,126
3.49,128
3.49,129
3.49,126
3.49,124
3.5,121
3.5,122
3.5,122
3.5,119
3.5,119
3.51,122
3.51,122
3.51,122
3.51,121
3.51,123
3.51,119
3.51,122
3.52,126
3.52,122
3.52,120
3.52,124
3.52,125
3.52,122
3.53,119
3.53,120
3.53,118
3.53,114
3.53,118
3.53,119
3.53,116
3.54,118
3.54,120
3.54,121
3.54,120
3.54,118
3.55,116
3.55,115
3.55,117
3.55,121
3.55,122
3.55,119
3.55,121
3.56,121
3.56,121
3.56,118
3.56,118
3.56,115
3.56,114
3.57,118
3.57,119
3.57,116
3.57,116
3.57,118
3.57,120
3.58,122
3.58,120
3.58,118
3.58,115
3.58,118
3.58,119
3.59,118
3.59,116
3.59,119
3.59,121
3.59,123
3.59,121
3.59,121
3.6,119
3.6,121
3.6,125
3.6,125
3.6,122
3.6,125
3.61,125
3.61,126
3.61,124
3.61,125
3.61,124
3.61,121
3.62,125
3.62,126
3.62,124
3.62,124
3.62,127
3.62,127
3.62,127
3.63,124
3.63,123
3.63,121
3.63,121
3.63,124
3.63,124
3.64,122
3.64,126
3.64,127
3.64,128
3.64,126
3.64,126
3.65,124
3.65,122
3.65,125
3.65,125
3.65,122
3.65,123
3.66,123
3.66,120
3.66,117
3.66,116
3.66,114
3.66,111
3.66,113
3.67,114
3.67,112
3.67,111
3.67,114
3.67,114
3.67,115
3.68,113
3.68,112
3.68,109
3.68,108
3.68,111
3.68,109
3.69,106
3.69,109
3.69,109
3.69,108
3.69,107
3.69,107
3.7,105
3.7,102
3.7,104
3.7,104
3.7,102
3.7,104
3.7,108
3.71,107
3.71,107
3.71,104
3.71,107
3.71,108
3.71,112
3.72,116
3.72,115
3.72,111
3.72,114
3.72,114
3.72,117
3.73,116
3.73,116
3.73,113
3.73,110
3.73,114
3.73,114
3.74,111
3.74,110
3.74,112
3.74,112
3.74,113
3.74,111
3.74,110
3.75,106
3.75,108
3.75,110
3.75,110
3.75,108
3.76,109
3.76,110
3.76,112
3.76,111
3.76,112
3.76,110
3.76,107
3.77,111
3.77,111
3.77,109
3.77,111
3.77,113
3.77,115
3.78,116
3.78,113
3.78,112
3.78,111
3.78,115
3.78,117
3.78,115
3.79,113
3.79,118
3.79,119
3.79,120
3.79,118
3.79,118
3.8,115
3.8,114
3.8,119
3.8,120
3.8,116
3.8,119
3.81,120
3.81,121
3.81,120
3.81,120
3.81,118
3.81,116
3.82,119
3.82,121
3.82,120
3.82,119
3.82,121
3.82,122
3.82,122
3.83,120
3.83,117
3.83,115
3.83,114
3.83,116
3.83,115
3.84,114
3.84,118
3.84,118
3.84,119
3.84,116
3.84,118
3.85,115
3.85,113
3.85,119
3.85,123
3.85,121
3.85,120
3.86,121
3.86,122
3.86,123
3.86,120
3.86,120
3.86,116
3.86,117
3.87,118
3.87,116
3.87,113
3.87,113
3.87,114
3.87,118
3.88,116
3.88,114
3.88,112
3.88,110
3.88,115
3.88,115
3.89,112
3.89,109
3.89,106
3.89,107
3.89,107
3.89,106
3.9,105
3.9,102
3.9,104
3.9,105
3.9,104
3.9,103
3.9,108
3.91,109
3.91,111
3.91,109
3.91,110
3.91,107
3.91,106
3.92,111
3.92,112
3.92,109
3.92,113
3.92,115
3.92,118
3.93,119
3.93,122
3.93,122
3.93,120
3.93,123
3.93,122
3.94,119
3.94,119
3.94,120
3.94,120
3.94,121
3.94,119
3.94,118
3.95,114
3.95,115
3.95,116
3.95,114
3.95,112
3.95,113
3.96,113
3.96,115
3.96,113
3.96,117
3.96,115
3.96,113
3.97,117
3.97,118
3.97,114
3.97,117
3.97,119
3.97,119
3.98,119
3.98,118
3.98,117
3.98,113
3.98,115
3.98,118
3.98,119
3.99,117
3.99,119
3.99,120
3.99,120
3.99,118
3.99,120
4.0,118
4.0,115
4.0,118
4.0,118
4.0,115
4.0,116
4.01,118
4.01,122
4.01,124
4.01,123
4.01,124
4.01,119
4.01,121
4.02,123
4.02,120
4.02,118
4.02,120
4.02,119
4.02,118
4.03,115
4.03,116
4.03,114
4.03,112
4.03,114
4.03,113
4.03,110
4.04,110
4.04,111
4.04,112
4.04,112
4.04,111
4.05,110
4.05,107
4.05,111
4.05,114
4.05,111
4.05,111
4.05,113
4.06,114
4.06,117
4.06,115
4.06,116
4.06,113
4.06,112
4.07,116
4.07,119
4.07,116
4.07,118
4.07,118
4.07,121
4.07,122
4.08,120
4.08,118
4.08,116
4.08,124
4.08,131
4.09,132
4.09,131
4.09,132
4.09,132
4.09,134
4.09,132
4.09,132
4.1,128
4.1,128
4.1,129
4.1,127
4.1,126
4.1,130
4.11,129
4.11,129
4.11,127
4.11,127
4.11,124
4.11,122
4.11,127
4.12,129
4.12,126
4.12,127
4.12,129
4.12,130
4.13,131
4.13,128
4.13,126
4.13,123
4.13,124
4.13,125
4.13,123
4.14,121
4.14,123
4.14,123
4.14,125
4.14,123
4.14,122
4.15,119
4.15,117
4.15,121
4.15,124
4.15,123
4.15,124
4.16,125
4.16,125
4.16,124
4.16,123
4.16,121
4.16,118
4.17,120
4.17,121
4.17,119
4.17,119
4.17,123
4.17,125
4.17,126
4.18,124
4.18,123
4.18,121
4.18,121
4.18,127
4.19,129
4.19,127
4.19,127
4.19,126
4.19,128
4.19,127
4.19,129
4.2,127
4.2,124
4.2,126
4.2,125
4.2,122
4.2,123
4.21,125
4.21,126
4.21,127
4.21,125
4.21,124
4.21,121
4.21,121
4.22,122
4.22,121
4.22,119
4.22,121
4.22,120
4.23,123
4.23,121
4.23,122
4.23,119
4.23,117
4.23,118
4.23,115
4.24,114
4.24,118
4.24,118
4.24,116
4.24,112
4.24,113
4.25,112
4.25,109
4.25,113
4.25,115
4.25,113
4.25,111
4.25,114
4.26,114
4.26,116
4.26,114
4.26,114
4.26,111
4.26,110
4.26,113
4.27,111
4.27,108
4.27,112
4.27,113
4.27,116
4.28,115
4.28,113
4.28,110
4.28,108
4.28,112
4.28,115
4.28,113
4.29,112
4.29,114
4.29,114
4.29,114
4.29,112
4.29,111
4.3,108
4.3,110
4.3,115
4.3,115
4.3,112
4.3,114
4.3,115
4.31,117
4.31,116
4.31,116
4.31,113
4.31,111
4.32,114
4.32,115
4.32,112
4.32,112
4.32,114
4.32,114
4.32,116
4.33,114
4.33,113
4.33,110
4.33,113
4.33,116
4.34,114
4.34,113
4.34,116
4.34,116
4.34,116
4.34,114
4.34,112
4.34,108
4.35,109
4.35,113
4.35,112
4.35,109
4.35,111
4.36,112
4.36,113
4.36,112
4.36,112
4.36,110
4.36,107
4.36,110
4.37,110
4.37,108
4.37,108
4.37,112
4.37,112
4.38,114
4.38,113
4.38,114
4.38,111
4.38,116
4.38,122
4.38,123
4.39,119
4.39,122
4.39,124
4.39,126
4.39,125
4.39,125
4.4,122
4.4,119
4.4,121
4.4,122
4.4,120
4.4,120
4.41,122
4.41,122
4.41,123
4.41,120
4.41,119
4.41,116
4.42,117
4.42,121
4.42,121
4.42,119
4.42,121
4.42,122
4.42,125
4.43,125
4.43,125
4.43,123
4.43,122
4.43,126
4.43,127
4.44,124
4.44,125
4.44,126
4.44,127
4.44,127
4.44,124
4.45,122
4.45,119
4.45,119
4.45,121
4.45,119
4.45,118
4.46,121
4.46,120
4.46,120
4.46,118
4.46,119
4.46,116
4.46,114
4.47,116
4.47,115
4.47,112
4.47,113
4.47,113
4.47,115
4.48,115
4.48,113
4.48,111
4.48,108
4.48,112
4.48,113
4.49,113
4.49,112
4.49,114
4.49,114
4.49,116
4.49,114
4.5,114
4.5,110
4.5,110
4.5,112
4.5,112
4.5,108
4.5,111
4.51,111
4.51,112
4.51,111
4.51,110
4.51,107
4.51,105
4.51,108
4.52,110
4.52,108
4.52,108
4.52,110
4.52,110
4.53,111
4.53,109
4.53,110
4.53,106
4.53,107
4.53,110
4.53,109
4.54,107
4.54,109
4.54,110
4.54,113
4.54,112
4.54,113
4.55,110
4.55,108
4.55,112
4.55,113
4.55,111
4.55,111
4.55,113
4.56,114
4.56,114
4.56,113
4.56,111
4.56,108
4.56,111
4.57,113
4.57,111
4.57,110
4.57,112
4.57,112
4.57,113
4.58,111
4.58,111
4.58,108
4.58,107
4.58,111
4.58,110
4.59,107
4.59,110
4.59,112
4.59,112
4.59,110
4.59,110
4.59,109
4.6,106
4.6,109
4.6,110
4.6,109
4.6,110
4.6,111
4.61,110
4.61,111
4.61,109
4.61,110
4.61,107
4.61,108
4.62,112
4.62,112
4.62,109
4.62,111
4.62,111
4.62,112
4.63,112
4.63,110
4.63,108
4.63,105
4.63,110
4.63,111
4.64,109
4.64,110
4.64,113
4.64,112
4.64,113
4.64,111
4.65,111
4.65,108
4.65,109
4.65,111
4.65,110
4.65,108
4.66,111
4.66,112
4.66,114
4.66,112
4.66,112
4.66,109
4.66,107
4.67,111
4.67,111
4.67,108
4.67,108
4.67,108
4.67,109
4.68,110
4.68,108
4.68,106
4.68,104
4.68,108
4.68,110
4.69,109
4.69,109
4.69,112
4.69,113
4.69,115
4.69,113
4.7,113
4.7,109
4.7,109
4.7,113
4.7,115
4.7,112
4.7,114
4.71,116
4.71,119
4.71,120
4.71,120
4.71,119
4.71,115
4.72,118
4.72,118
4.72,116
4.72,116
4.72,118
4.72,117
4.73,118
4.73,116
4.73,114
4.73,112
4.73,112
4.73,116
4.73,115
4.74,112
4.74,115
4.74,115
4.74,117
4.74,117
4.74,117
4.75,114
4.75,112
4.75,116
4.75,117
4.75,114
4.75,115
4.76,117
4.76,118
4.76,118
4.76,117
4.76,116
4.76,113
4.76,114
4.77,116
4.77,114
4.77,112
4.77,114
4.77,114
4.77,116
4.78,114
4.78,114
4.78,111
4.78,110
4.78,113
4.78,114
4.79,111
4.79,112
4.79,113
4.79,115
4.79,114
4.79,112
4.8,111
4.8,108
4.8,111
4.8,113
4.8,112
4.8,110
4.8,113
4.81,112
4.81,114
4.81,112
4.81,112
4.81,109
4.81,108
4.82,111
4.82,110
4.82,107
4.82,109
4.82,109
4.82,110
4.83,110
4.83,109
4.83,107
4.83,104
4.83,109
4.83,111
4.84,108
4.84,108
4.84,110
4.84,109
4.84,110
4.84,108
4.84,108
4.85,104
4.85,105
4.85,108
4.85,108
4.85,105
4.85,107
4.86,107
4.86,109
4.86,109
4.86,108
4.86,105
4.86,104
4.87,110
4.87,112
4.87,109
4.87,109
4.87,110
4.87,111
4.88,111
4.88,109
4.88,108
4.88,106
4.88,107
4.88,109
4.89,109
4.89,107
4.89,108
4.89,108
4.89,111
4.89,109
4.89,109
4.9,106
4.9,105
4.9,110
4.9,110
4.9,107
4.9,108
4.91,110
4.91,111
4.91,111
4.91,109
4.91,108
4.91,105
4.92,108
4.92,110
4.92,109
4.92,107
4.92,109
4.92,108
4.93,110
4.93,109
4.93,108
4.93,106
4.93,105
4.93,110
4.93,111
4.94,108
4.94,109
4.94,110
4.94,111
4.94,111
4.94,110
4.95,108
4.95,105
4.95,109
4.95,111
4.95,109
4.95,108
4.96,110
4.96,110
4.96,112
4.96,110
4.96,109
4.96,106
4.97,106
4.97,108
4.97,108
4.97,105
4.97,107
4.97,106
4.97,106
4.98,105
4.98,105
4.98,103
4.98,100
4.98,104
4.98,104
4.99,101
4.99,102
4.99,103
4.99,103
4.99,105
4.99,103
5.0,102
5.0,100
5.0,101
5.0,104
5.0,103
5.0,101
5.01,104
5.01,104
5.01,106
5.01,105
5.01,105
5.01,103
5.01,101
5.02,106
5.02,109
5.02,107
5.02,107
5.02,108
5.02,109
5.03,110
5.03,108
5.03,106
5.03,103
5.03,106
5.03,108
5.03,107
5.04,105
5.04,107
5.04,109
5.04,110
5.04,109
5.05,109
5.05,106
5.05,105
5.05,109
5.05,111
5.05,108
5.05,109
5.06,110
5.06,112
5.06,111
5.06,110
5.06,109
5.06,106
5.07,106
5.07,107
5.07,105
5.07,103
5.07,104
5.07,104
5.07,106
5.08,104
5.08,105
5.08,102
5.08,101
5.08,105
5.09,106
5.09,103
5.09,106
5.09,107
5.09,107
5.09,106
5.09,104
5.1,103
5.1,100
5.1,103
5.1,105
5.1,104
5.1,103
5.11,106
5.11,106
5.11,108
5.11,106
5.11,105
5.11,103
5.11,102
5.12,105
5.12,104
5.12,102
5.12,103
5.12,104
5.13,105
5.13,105
5.13,104
5.13,102
5.13,99
5.13,103
5.13,103
5.14,101
5.14,100
5.14,102
5.14,102
5.14,104
5.14,102
5.15,102
5.15,99
5.15,101
5.15,105
5.15,104
5.15,102
5.15,106
5.16,106
5.16,108
5.16,107
5.16,109
5.16,107
5.17,105
5.17,109
5.17,109
5.17,107
5.17,107
5.17,109
5.17,110
5.18,110
5.18,108
5.18,107
5.18,104
5.18,105
5.18,107
5.19,105
5.19,103
5.19,106
5.19,107
5.19,107
5.19,105
5.19,106
5.2,103
5.2,102
5.2,105
5.2,105
5.2,102
5.2,104
5.21,105
5.21,107
5.21,106
5.21,105
5.21,104
5.21,101
5.22,104
5.22,105
5.22,104
5.22,103
5.22,104
5.22,105
5.23,107
5.23,105
5.23,104
5.23,102
5.23,101
5.23,104
5.24,106
5.24,104
5.24,105
5.24,105
5.24,107
5.24,106
5.24,106
5.25,103
5.25,101
5.25,104
5.25,105
5.25,103
5.25,104
5.26,106
5.26,106
5.26,108
5.26,106
5.26,105
5.26,102
5.26,103
5.27,104
5.27,104
5.27,102
5.27,104
5.27,104
5.28,105
5.28,103
5.28,103
5.28,100
5.28,98
5.28,101
5.28,102
5.29,99
5.29,100
5.29,101
5.29,101
5.29,102
5.29,100
5.3,99
5.3,97
5.3,98
5.3,102
5.3,102
5.3,100
5.3,102
5.31,102
5.31,104
5.31,103
5.31,105
5.31,102
5.31,101
5.32,103
5.32,104
5.32,101
5.32,102
5.32,103
5.32,103
5.32,102
5.33,101
5.33,100
5.33,97
5.33,100
5.33,101
5.34,100
5.34,98
5.34,100
5.34,102
5.34,104
5.34,102
5.34,102
5.35,100
5.35,98
5.35,100
5.35,100
5.35,98
5.35,99
5.36,100
5.36,100
5.36,98
5.36,98
5.36,97
5.36,94
5.36,97
5.37,100
5.37,99
5.37,97
5.37,100
5.37,99
5.37,100
5.38,99
5.38,98
5.38,96
5.38,94
5.38,97
5.38,98
5.39,97
5.39,97
5.39,99
5.39,99
5.39,101
5.39,99
5.4,99
5.4,96
5.4,95
5.4,98
5.4,100
5.4,97
5.4,99
5.41,101
5.41,100
5.41,99
5.41,97
5.41,97
5.41,95
5.42,95
5.42,97
5.42,96
5.42,94
5.42,96
5.42,96
5.43,96
5.43,96
5.43,95
5.43,93
5.43,91
5.43,95
5.43,97
5.44,96
5.44,95
5.44,97
5.44,97
5.44,98
5.44,97
5.44,96
5.45,94
5.45,92
5.45,96
