Time_s,ADC
0.0,85
0.0,84
0.0,84
0.0,84
0.01,86
0.01,86
0.01,86
0.01,84
0.01,84
0.01,86
0.01,87
0.02,85
0.02,85
0.02,85
0.02,85
0.02,86
0.02,85
0.03,85
0.03,84
0.03,83
0.03,86
0.03,86
0.03,83
0.03,83
0.04,83
0.04,83
0.04,84
0.04,82
0.04,82
0.04,81
0.05,80
0.05,82
0.05,82
0.05,81
0.05,81
0.05,81
0.05,83
0.06,84
0.06,83
0.06,83
0.06,82
0.06,82
0.06,84
0.07,84
0.07,82
0.07,82
0.07,82
0.07,84
0.07,85
0.07,83
0.08,83
0.08,82
0.08,83
0.08,85
0.08,84
0.08,83
0.09,83
0.09,84
0.09,86
0.09,86
0.09,85
0.09,85
0.1,84
0.1,85
0.1,87
0.1,86
0.1,85
0.1,85
0.1,85
0.11,87
0.11,87
0.11,85
0.11,84
0.11,82
0.11,84
0.11,85
0.12,84
0.12,83
0.12,83
0.12,83
0.12,86
0.12,85
0.12,84
0.13,83
0.13,83
0.13,85
0.13,85
0.13,83
0.13,82
0.14,83
0.14,83
0.14,85
0.14,83
0.14,83
0.14,82
0.14,81
0.15,84
0.15,85
0.15,82
0.15,83
0.15,83
0.15,84
0.16,85
0.16,84
0.16,84
0.16,83
0.16,82
0.16,85
0.17,85
0.17,83
0.17,83
0.17,84
0.17,85
0.17,86
0.17,85
0.18,85
0.18,84
0.18,85
0.18,88
0.18,87
0.18,85
0.19,86
0.19,87
0.19,89
0.19,89
0.19,88
0.19,87
0.19,86
0.2,87
0.2,89
0.2,88
0.2,86
0.2,86
0.2,86
0.2,88
0.21,88
0.21,86
0.21,86
0.21,85
0.21,86
0.22,88
0.22,86
0.22,85
0.22,86
0.22,86
0.22,88
0.22,88
0.22,87
0.23,86
0.23,85
0.23,86
0.23,88
0.23,85
0.23,85
0.24,85
0.24,85
0.24,87
0.24,86
0.24,86
0.24,84
0.25,83
0.25,85
0.25,86
0.25,84
0.25,84
0.25,85
0.25,87
0.26,91
0.26,91
0.26,91
0.26,93
0.26,94
0.26,97
0.26,98
0.27,95
0.27,94
0.27,95
0.27,94
0.27,95
0.27,94
0.28,94
0.28,92
0.28,91
0.28,94
0.28,93
0.28,91
0.28,91
0.29,92
0.29,94
0.29,95
0.29,92
0.29,91
0.29,90
0.3,90
0.3,92
0.3,91
0.3,89
0.3,90
0.3,90
0.31,91
0.31,91
0.31,90
0.31,89
0.31,88
0.31,89
0.31,91
0.32,89
0.32,89
0.32,89
0.32,88
0.32,90
0.32,89
0.32,89
0.33,88
0.33,87
0.33,89
0.33,90
0.33,88
0.33,87
0.34,87
0.34,87
0.34,88
0.34,87
0.34,87
0.34,86
0.35,85
0.35,87
0.35,87
0.35,86
0.35,86
0.35,85
0.35,86
0.36,87
0.36,86
0.36,86
0.36,85
0.36,84
0.36,87
0.37,87
0.37,84
0.37,84
0.37,85
0.37,86
0.37,87
0.37,85
0.38,85
0.38,83
0.38,84
0.38,86
0.38,86
0.38,84
0.39,85
0.39,84
0.39,86
0.39,86
0.39,85
0.39,84
0.4,84
0.4,84
0.4,86
0.4,85
0.4,84
0.4,84
0.4,84
0.41,86
0.41,85
0.41,85
0.41,85
0.41,84
0.41,85
0.41,87
0.42,85
0.42,84
0.42,85
0.42,84
0.42,86
0.42,85
0.43,85
0.43,83
0.43,83
0.43,85
0.43,85
0.43,83
0.44,83
0.44,82
0.44,83
0.44,85
0.44,83
0.44,84
0.44,83
0.45,83
0.45,86
0.45,86
0.45,84
0.45,85
0.45,85
0.45,87
0.46,88
0.46,86
0.46,86
0.46,85
0.46,85
0.46,88
0.46,87
0.47,85
0.47,86
0.47,85
0.47,87
0.47,88
0.47,86
0.48,86
0.48,85
0.48,85
0.48,87
0.48,86
0.48,84
0.49,84
0.49,85
0.49,87
0.49,87
0.49,86
0.49,86
0.5,85
0.5,86
0.5,88
0.5,86
0.5,85
0.5,86
0.5,85
0.5,88
0.51,86
0.51,86
0.51,86
0.51,84
0.51,86
0.52,87
0.52,85
0.52,85
0.52,85
0.52,85
0.52,87
0.52,85
0.53,85
0.53,85
0.53,84
0.53,87
0.53,87
0.53,84
0.54,84
0.54,83
0.54,84
0.54,86
0.54,84
0.54,84
0.54,83
0.55,83
0.55,85
0.55,85
0.55,84
0.55,84
0.55,84
0.56,86
0.56,86
0.56,84
0.56,84
0.56,83
0.56,83
0.56,86
0.57,85
0.57,83
0.57,83
0.57,82
0.57,84
0.57,83
0.57,83
0.58,83
0.58,81
0.58,82
0.58,85
0.58,83
0.58,82
0.59,82
0.59,82
0.59,84
0.59,84
0.59,83
0.59,81
0.6,80
0.6,82
0.6,84
0.6,81
0.6,81
0.6,81
0.61,82
0.61,84
0.61,83
0.61,83
0.61,83
0.61,84
0.61,86
0.61,87
0.62,85
0.62,85
0.62,85
0.62,86
0.62,88
0.62,86
0.63,86
0.63,85
0.63,85
0.63,88
0.63,88
0.63,86
0.63,86
0.64,86
0.64,87
0.64,88
0.64,86
0.64,86
0.65,85
0.65,85
0.65,88
0.65,88
0.65,85
0.65,86
0.65,86
0.66,88
0.66,88
0.66,87
0.66,86
0.66,86
0.66,87
0.67,89
0.67,87
0.67,86
0.67,86
0.67,86
0.67,88
0.67,87
0.68,86
0.68,84
0.68,84
0.68,86
0.68,87
0.68,85
0.69,84
0.69,84
0.69,85
0.69,86
0.69,85
0.69,84
0.69,84
0.7,83
0.7,86
0.7,87
0.7,84
0.7,84
0.7,84
0.7,84
0.71,85
0.71,84
0.71,84
0.71,83
0.71,83
0.71,85
0.71,86
0.72,83
0.72,83
0.72,83
0.72,84
0.72,85
0.72,83
0.73,83
0.73,82
0.73,82
0.73,85
0.73,84
0.74,83
0.74,83
0.74,83
0.74,85
0.74,85
0.74,83
0.74,83
0.75,82
0.75,83
0.75,85
0.75,84
0.75,83
0.75,83
0.75,83
0.76,85
0.76,85
0.76,84
0.76,84
0.76,83
0.76,85
0.76,86
0.77,84
0.77,84
0.77,84
0.77,84
0.77,86
0.77,86
0.78,86
0.78,85
0.78,85
0.78,87
0.78,88
0.78,87
0.79,86
0.79,86
0.79,87
0.79,89
0.79,87
0.79,87
0.79,85
0.8,85
0.8,88
0.8,88
0.8,85
0.8,86
0.8,85
0.81,86
0.81,87
0.81,85
0.81,85
0.81,83
0.81,83
0.81,86
0.82,86
0.82,84
0.82,84
0.82,83
0.82,84
0.82,85
0.83,84
0.83,84
0.83,83
0.83,83
0.83,86
0.83,85
0.83,83
0.84,83
0.84,82
0.84,84
0.84,83
0.84,82
0.84,82
0.85,81
0.85,82
0.85,84
0.85,83
0.85,82
0.85,82
0.86,82
0.86,85
0.86,84
0.86,83
0.86,83
0.86,82
0.86,84
0.86,85
0.87,84
0.87,83
0.87,83
0.87,83
0.87,85
0.88,85
0.88,84
0.88,83
0.88,83
0.88,86
0.88,87
0.88,85
0.88,85
0.89,85
0.89,85
0.89,87
0.89,85
0.89,85
0.89,85
0.9,84
0.9,87
0.9,88
0.9,85
0.9,84
0.9,85
0.91,86
0.91,88
0.91,86
0.91,86
0.91,85
0.91,86
0.91,89
0.92,88
0.92,87
0.92,88
0.92,87
0.92,87
0.92,87
0.93,85
0.93,85
0.93,85
0.93,86
0.93,88
0.93,87
0.93,85
0.94,84
0.94,84
0.94,86
0.94,86
0.94,84
0.94,83
0.95,82
0.95,84
0.95,85
0.95,84
0.95,82
0.95,82
0.95,84
0.96,86
0.96,86
0.96,85
0.96,85
0.96,85
0.96,87
0.96,88
0.97,86
0.97,85
0.97,84
0.97,85
0.97,87
0.97,86
0.98,86
0.98,85
0.98,85
0.98,86
0.98,87
0.98,85
0.99,84
0.99,84
0.99,85
0.99,87
0.99,86
0.99,86
1.0,86
1.0,86
1.0,88
1.0,88
1.0,86
1.0,89
1.0,90
1.01,91
1.01,91
1.01,91
1.01,93
1.01,94
1.01,95
1.01,98
1.02,98
1.02,96
1.02,96
1.02,96
1.02,98
1.02,98
1.03,96
1.03,93
1.03,91
1.03,92
1.03,95
1.03,95
1.03,94
1.04,95
1.04,95
1.04,98
1.04,96
1.04,96
1.04,96
1.05,95
1.05,97
1.05,98
1.05,96
1.05,96
1.05,97
1.05,98
1.06,101
1.06,100
1.06,102
1.06,103
1.06,102
1.06,104
1.07,104
1.07,101
1.07,100
1.07,101
1.07,103
1.07,104
1.08,102
1.08,99
1.08,96
1.08,95
1.08,96
1.08,95
1.09,92
1.09,91
1.09,90
1.09,92
1.09,91
1.09,94
1.09,94
1.1,91
1.1,92
1.1,93
1.1,91
1.1,91
1.1,92
1.11,90
1.11,91
1.11,92
1.11,91
1.11,88
1.11,86
1.12,85
1.12,83
1.12,83
1.12,82
1.12,85
1.12,86
1.12,84
1.12,82
1.13,83
1.13,81
1.13,79
1.13,78
1.13,76
1.13,75
1.14,76
1.14,75
1.14,73
1.14,71
1.14,72
1.14,75
1.14,73
1.15,74
1.15,75
1.15,74
1.15,77
1.15,79
1.15,80
1.16,78
1.16,77
1.16,76
1.16,79
1.16,80
1.16,85
1.17,90
1.17,89
1.17,91
1.17,93
1.17,93
1.17,95
1.17,95
1.18,93
1.18,96
1.18,99
1.18,100
1.18,96
1.18,96
1.18,104
1.19,110
1.19,118
1.19,121
1.19,123
1.19,132
1.2,143
1.2,147
1.2,147
1.2,143
1.2,142
1.2,147
1.21,144
1.21,139
1.21,135
1.21,137
1.21,137
1.21,137
1.21,134
1.22,132
1.22,136
1.22,138
1.22,138
1.22,142
1.22,149
1.23,148
1.23,144
1.23,158
1.23,176
1.23,178
1.23,187
1.24,192
1.24,189
1.24,185
1.24,179
1.24,177
1.24,174
1.25,169
1.25,171
1.25,172
1.25,167
1.25,168
1.25,174
1.25,172
1.26,170
1.26,164
1.26,166
1.26,170
1.26,170
1.26,165
1.27,165
1.27,168
1.27,177
1.27,194
1.27,195
1.27,199
1.27,210
1.28,217
1.28,222
1.28,227
1.28,235
1.28,231
1.28,231
1.29,233
1.29,229
1.29,222
1.29,216
1.29,214
1.29,216
1.3,219
1.3,242
1.3,245
1.3,250
1.3,267
1.3,266
1.31,261
1.31,276
1.31,293
1.31,293
1.31,307
1.31,307
1.32,303
1.32,293
1.32,290
1.32,288
1.32,284
1.32,280
1.33,272
1.33,265
1.33,258
1.33,258
1.33,260
1.33,254
1.34,252
1.34,257
1.34,253
1.34,246
1.34,239
1.34,232
1.34,225
1.35,222
1.35,216
1.35,214
1.35,215
1.35,220
1.35,235
1.36,267
1.36,269
1.36,263
1.36,257
1.36,259
1.36,262
1.36,261
1.37,262
1.37,275
1.37,280
1.37,280
1.37,274
1.37,271
1.38,265
1.38,260
1.38,258
1.38,253
1.38,253
1.38,246
1.39,241
1.39,238
1.39,248
1.39,250
1.39,243
1.39,244
1.39,247
1.4,244
1.4,241
1.4,249
1.4,243
1.4,239
1.4,243
1.41,241
1.41,247
1.41,258
1.41,256
1.41,263
1.41,263
1.42,276
1.42,270
1.42,262
1.42,260
1.42,260
1.42,258
1.43,270
1.43,268
1.43,269
1.43,261
1.43,254
1.43,254
1.43,259
1.44,263
1.44,285
1.44,294
1.44,300
1.44,307
1.45,307
1.45,327
1.45,332
1.45,338
1.45,359
1.45,353
1.46,350
1.46,339
1.46,332
1.46,323
1.46,316
1.46,315
1.46,313
1.47,313
1.47,319
1.47,349
1.47,369
1.47,366
1.47,393
1.48,396
1.48,393
1.48,401
1.48,391
1.48,391
1.48,381
1.49,385
1.49,390
1.49,385
1.49,380
1.49,396
1.49,396
1.5,391
1.5,390
1.5,391
1.5,384
1.5,378
1.5,368
1.5,370
1.51,362
1.51,356
1.51,348
1.51,343
1.51,334
1.51,338
1.51,338
1.52,337
1.52,333
1.52,326
1.52,324
1.52,313
1.52,307
1.53,302
1.53,298
1.53,290
1.53,290
1.53,294
1.53,303
1.54,303
1.54,297
1.54,291
1.54,288
1.54,289
1.54,291
1.55,285
1.55,293
1.55,289
1.55,284
1.55,297
1.55,312
1.55,310
1.56,308
1.56,305
1.56,302
1.56,311
1.56,306
1.57,306
1.57,311
1.57,318
1.57,322
1.57,325
1.57,340
1.57,361
1.58,360
1.58,366
1.58,355
1.58,349
1.58,344
1.58,339
1.59,332
1.59,329
1.59,322
1.59,313
1.59,306
1.59,300
1.6,294
1.6,288
1.6,308
1.6,320
1.6,325
1.6,322
1.61,328
1.61,327
1.61,335
1.61,327
1.61,336
1.61,334
1.61,323
1.62,317
1.62,311
1.62,304
1.62,301
1.62,304
1.63,294
1.63,285
1.63,277
1.63,271
1.63,268
1.63,263
1.63,256
1.63,254
1.64,251
1.64,250
1.64,260
1.64,256
1.64,250
1.65,249
1.65,243
1.65,238
1.65,231
1.65,252
1.65,274
1.65,287
1.66,293
1.66,288
1.66,289
1.66,311
1.66,318
1.66,330
1.67,324
1.67,331
1.67,357
1.67,362
1.67,361
1.67,367
1.68,359
1.68,351
1.68,339
1.68,329
1.68,321
1.68,315
1.68,306
1.69,299
1.69,290
1.69,284
1.69,281
1.69,275
1.69,272
1.7,277
1.7,277
1.7,287
1.7,284
1.7,278
1.7,269
1.71,261
1.71,253
1.71,246
1.71,241
1.71,244
1.71,254
1.72,252
1.72,268
1.72,272
1.72,266
1.72,266
1.72,264
1.73,260
1.73,265
1.73,266
1.73,260
1.73,271
1.73,269
1.73,263
1.74,257
1.74,255
1.74,257
1.74,251
1.74,245
1.74,247
1.75,245
1.75,244
1.75,251
1.75,257
1.75,261
1.75,261
1.76,259
1.76,255
1.76,249
1.76,244
1.76,239
1.76,231
1.76,225
1.77,221
1.77,223
1.77,222
1.77,241
1.77,247
1.77,242
1.78,238
1.78,239
1.78,236
1.78,230
1.78,233
1.78,234
1.78,232
1.79,241
1.79,241
1.79,240
1.79,236
1.79,245
1.8,248
1.8,266
1.8,289
1.8,285
1.8,285
1.8,292
1.8,290
1.81,294
1.81,292
1.81,289
1.81,281
1.81,273
1.81,265
1.82,260
1.82,259
1.82,253
1.82,246
1.82,240
1.82,249
1.83,251
1.83,243
1.83,261
1.83,288
1.83,304
1.83,324
1.84,322
1.84,312
1.84,302
1.84,292
1.84,283
1.84,276
1.85,269
1.85,261
1.85,252
1.85,245
1.85,249
1.85,248
1.86,250
1.86,248
1.86,245
1.86,238
1.86,232
1.86,227
1.86,221
1.86,216
1.87,211
1.87,209
1.87,203
1.87,197
1.87,192
1.88,187
1.88,182
1.88,178
1.88,175
1.88,176
1.88,192
1.88,197
1.89,199
1.89,220
1.89,225
1.89,217
1.89,219
1.9,216
1.9,213
1.9,206
1.9,202
1.9,201
1.9,198
1.9,192
1.91,185
1.91,182
1.91,177
1.91,177
1.91,173
1.91,168
1.91,166
1.92,164
1.92,158
1.92,157
1.92,158
1.92,157
1.92,154
1.93,151
1.93,149
1.93,144
1.93,143
1.93,142
1.93,139
1.94,136
1.94,134
1.94,132
1.94,133
1.94,136
1.94,135
1.95,134
1.95,130
1.95,131
1.95,133
1.95,129
1.95,125
1.96,122
1.96,121
1.96,119
1.96,116
1.96,114
1.96,112
1.97,113
1.97,120
1.97,122
1.97,132
1.97,136
1.97,134
1.98,136
1.98,132
1.98,128
1.98,125
1.98,122
1.98,123
1.98,122
1.99,119
1.99,117
1.99,115
1.99,115
1.99,113
1.99,111
2.0,108
2.0,104
2.0,101
2.0,100
2.0,102
2.0,100
2.0,99
2.01,99
2.01,99
2.01,97
2.01,97
2.01,97
2.01,96
2.02,99
2.02,98
2.02,96
2.02,96
2.02,96
2.02,97
2.03,98
2.03,95
2.03,94
2.03,93
2.03,92
2.03,94
2.03,94
2.04,93
2.04,93
2.04,92
2.04,93
2.04,93
2.04,91
2.04,90
2.05,90
2.05,89
2.05,91
2.05,88
2.05,87
2.05,86
2.06,88
2.06,91
2.06,90
2.06,90
2.06,89
2.06,88
2.07,88
2.07,89
2.07,87
2.07,86
2.07,84
2.07,82
2.07,89
2.08,90
2.08,90
2.08,89
2.08,89
2.08,92
2.08,94
2.08,94
2.09,100
2.09,98
2.09,96
2.09,96
2.09,95
2.09,96
2.1,94
2.1,93
2.1,95
2.1,96
2.1,93
2.1,92
2.11,91
2.11,92
2.11,93
2.11,91
2.11,90
2.11,89
2.11,89
2.12,90
2.12,90
2.12,88
2.12,87
2.12,87
2.12,88
2.13,88
2.13,86
2.13,85
2.13,84
2.13,85
2.13,87
2.14,86
2.14,84
2.14,85
2.14,84
2.14,86
2.14,86
2.14,84
2.15,83
2.15,83
2.15,84
2.15,85
2.15,84
2.15,83
2.15,84
2.16,84
2.16,86
2.16,85
2.16,84
2.16,84
2.16,82
2.17,85
2.17,86
2.17,84
2.17,83
2.17,83
2.17,84
2.17,86
2.18,85
2.18,85
2.18,84
2.18,83
2.18,86
2.18,86
2.19,84
2.19,84
2.19,84
2.19,84
2.19,85
2.19,83
2.2,83
2.2,81
2.2,82
2.2,85
2.2,84
2.2,82
2.2,83
2.21,82
2.21,85
2.21,85
2.21,83
2.21,83
2.21,82
2.21,83
2.22,85
2.22,84
2.22,82
2.22,82
2.22,82
2.22,84
2.23,84
2.23,83
2.23,82
2.23,81
2.23,83
2.23,84
2.24,82
2.24,81
2.24,82
2.24,81
2.24,83
2.24,82
2.24,82
2.25,82
2.25,81
2.25,84
2.25,85
2.25,83
2.25,84
2.26,84
2.26,85
2.26,87
2.26,86
2.26,85
2.26,84
2.27,83
2.27,86
2.27,86
2.27,84
2.27,83
2.27,83
2.27,84
2.28,84
2.28,83
2.28,82
2.28,82
2.28,82
2.28,84
2.28,83
2.29,82
2.29,82
2.29,82
2.29,84
2.29,84
2.29,83
2.3,82
2.3,82
2.3,83
2.3,85
2.3,84
2.3,83
2.31,82
2.31,83
2.31,85
2.31,84
2.31,84
2.31,83
2.31,82
2.32,85
2.32,86
2.32,83
2.32,83
2.32,83
2.32,84
2.33,85
2.33,84
2.33,83
2.33,83
2.33,82
2.33,84
2.33,85
2.34,83
2.34,82
2.34,82
2.34,83
2.34,85
2.34,83
2.34,83
2.35,82
2.35,82
2.35,85
2.35,84
2.35,82
2.36,82
2.36,82
2.36,84
2.36,84
2.36,83
2.36,83
2.36,82
2.37,84
2.37,85
2.37,84
2.37,82
2.37,82
2.37,82
2.37,84
2.38,83
2.38,83
2.38,83
2.38,82
2.38,84
2.38,85
2.39,83
2.39,82
2.39,82
2.39,83
2.39,84
2.39,83
2.4,83
2.4,82
2.4,81
2.4,85
2.4,86
2.4,84
2.4,83
2.41,83
2.41,84
2.41,85
2.41,83
2.41,84
2.41,82
2.42,83
2.42,86
2.42,85
2.42,83
2.42,83
2.42,83
2.42,84
2.43,84
2.43,83
2.43,84
2.43,83
2.43,84
2.43,85
2.44,84
2.44,83
2.44,84
2.44,84
2.44,85
2.44,85
2.44,83
2.45,83
2.45,83
2.45,84
2.45,86
2.45,84
2.45,84
2.46,84
2.46,85
2.46,86
2.46,85
2.46,85
2.46,84
2.46,83
2.47,86
2.47,87
2.47,85
2.47,85
2.47,85
2.47,85
2.48,88
2.48,86
2.48,86
2.48,85
2.48,85
2.48,88
2.49,88
2.49,86
2.49,87
2.49,87
2.49,88
2.49,88
2.49,86
2.5,87
2.5,86
2.5,86
2.5,88
2.5,88
2.5,85
2.5,86
2.51,85
2.51,86
2.51,86
2.51,84
2.51,83
2.51,81
2.52,82
2.52,84
2.52,83
2.52,81
2.52,82
2.52,82
2.53,85
2.53,85
2.53,87
2.53,89
2.53,90
2.53,99
2.53,109
2.54,111
2.54,116
2.54,126
2.54,129
2.54,127
2.54,131
2.55,135
2.55,132
2.55,133
2.55,131
2.55,131
2.55,142
2.55,145
2.56,149
2.56,166
2.56,172
2.56,167
2.56,163
2.57,161
2.57,170
2.57,176
2.57,174
2.57,182
2.57,189
2.57,190
2.58,187
2.58,184
2.58,181
2.58,179
2.58,185
2.58,190
2.59,186
2.59,191
2.59,212
2.59,215
2.59,216
2.59,232
2.59,236
2.6,235
2.6,227
2.6,226
2.6,226
2.6,219
2.61,213
2.61,209
2.61,207
2.61,202
2.61,196
2.61,189
2.61,183
2.62,179
2.62,176
2.62,171
2.62,168
2.62,166
2.62,164
2.63,163
2.63,160
2.63,158
2.63,156
2.63,154
2.63,154
2.63,151
2.64,148
2.64,149
2.64,149
2.64,147
2.64,144
2.64,142
2.65,139
2.65,135
2.65,132
2.65,131
2.65,127
2.65,125
2.66,125
2.66,126
2.66,124
2.66,124
2.66,126
2.66,123
2.67,120
2.67,120
2.67,119
2.67,118
2.67,123
2.67,125
2.67,124
2.68,120
2.68,118
2.68,116
2.68,114
2.68,117
2.68,120
2.69,119
2.69,116
2.69,114
2.69,114
2.69,114
2.69,111
2.7,110
2.7,109
2.7,109
2.7,110
2.7,108
2.7,106
2.71,106
2.71,105
2.71,106
2.71,104
2.71,103
2.71,101
2.71,100
2.72,102
2.72,102
2.72,99
2.72,99
2.72,99
2.72,102
2.73,102
2.73,101
2.73,100
2.73,99
2.73,99
2.73,100
2.74,98
2.74,95
2.74,94
2.74,93
2.74,95
2.74,95
2.75,94
2.75,95
2.75,95
2.75,96
2.75,97
2.75,95
2.75,95
2.76,94
2.76,95
2.76,95
2.76,95
2.76,101
2.76,109
2.76,116
2.77,117
2.77,123
2.77,126
2.77,126
2.77,126
2.78,125
2.78,123
2.78,120
2.78,119
2.78,117
2.78,118
2.78,116
2.79,113
2.79,109
2.79,108
2.79,107
2.79,107
2.79,105
2.8,104
2.8,104
2.8,104
2.8,106
2.8,105
2.8,103
2.8,101
2.81,101
2.81,102
2.81,102
2.81,100
2.81,98
2.81,97
2.82,97
2.82,98
2.82,95
2.82,94
2.82,93
2.82,93
2.83,94
2.83,93
2.83,91
2.83,89
2.83,88
2.83,90
2.83,92
2.84,90
2.84,88
2.84,89
2.84,90
2.84,92
2.84,90
2.85,88
2.85,88
2.85,90
2.85,94
2.85,94
2.85,91
2.85,92
2.86,90
2.86,87
2.86,86
2.86,85
2.86,84
2.86,82
2.87,81
2.87,84
2.87,83
2.87,81
2.87,81
2.87,84
2.88,88
2.88,90
2.88,89
2.88,94
2.88,97
2.88,96
2.88,94
2.89,94
2.89,93
2.89,91
2.89,90
2.89,87
2.89,86
2.89,85
2.9,83
2.9,80
2.9,82
2.9,85
2.9,83
2.9,83
2.91,80
2.91,82
2.91,87
2.91,87
2.91,88
2.91,90
2.92,93
2.92,100
2.92,100
2.92,100
2.92,100
2.92,101
2.92,103
2.93,105
2.93,103
2.93,104
2.93,105
2.93,105
2.93,104
2.94,101
2.94,101
2.94,98
2.94,96
2.94,99
2.94,102
2.95,104
2.95,105
2.95,105
2.95,110
2.95,110
2.95,108
2.96,106
2.96,103
2.96,109
2.96,112
2.96,109
2.96,108
2.96,107
2.97,104
2.97,103
2.97,105
2.97,106
2.97,112
2.97,115
2.98,114
2.98,118
2.98,122
2.98,124
2.98,123
2.98,122
2.98,119
2.99,116
2.99,114
2.99,113
2.99,114
2.99,112
3.0,111
3.0,109
3.0,106
3.0,105
3.0,105
3.0,102
3.0,99
3.01,98
3.01,99
3.01,100
3.01,99
3.01,99
3.01,99
3.02,98
3.02,98
3.02,95
3.02,94
3.02,92
3.02,89
3.02,91
3.03,97
3.03,96
3.03,99
3.03,100
3.03,99
3.03,100
3.04,100
3.04,99
3.04,103
3.04,108
3.04,109
3.04,106
3.05,103
3.05,102
3.05,104
3.05,115
3.05,123
3.05,121
3.05,121
3.06,118
3.06,117
3.06,114
3.06,114
3.06,114
3.06,117
3.07,122
3.07,120
3.07,124
3.07,122
3.07,132
3.07,137
3.08,139
3.08,139
3.08,143
3.08,152
3.08,150
3.08,149
3.09,155
3.09,161
3.09,162
3.09,158
3.09,155
3.09,152
3.09,148
3.1,145
3.1,142
3.1,137
3.1,133
3.1,131
3.1,134
3.11,131
3.11,130
3.11,129
3.11,128
3.11,129
3.11,126
3.12,122
3.12,119
3.12,116
3.12,117
3.12,115
3.12,112
3.13,112
3.13,118
3.13,124
3.13,124
3.13,135
3.13,138
3.13,140
3.14,138
3.14,142
3.14,153
3.14,157
3.14,157
3.14,162
3.15,161
3.15,166
3.15,167
3.15,171
3.15,180
3.15,184
3.15,179
3.16,199
3.16,208
3.16,202
3.16,202
3.16,207
3.17,206
3.17,211
3.17,215
3.17,223
3.17,229
3.17,226
3.17,225
3.18,237
3.18,237
3.18,242
3.18,247
3.18,251
3.18,252
3.19,245
3.19,239
3.19,233
3.19,230
3.19,226
3.19,237
3.2,240
3.2,248
3.2,247
3.2,265
3.2,281
3.2,285
3.21,276
3.21,267
3.21,262
3.21,262
3.21,261
3.21,266
3.21,282
3.22,287
3.22,301
3.22,329
3.22,342
3.22,336
3.22,326
3.23,328
3.23,328
3.23,333
3.23,329
3.23,330
3.23,331
3.24,322
3.24,320
3.24,329
3.24,328
3.24,329
3.24,322
3.25,317
3.25,313
3.25,328
3.25,351
3.25,354
3.25,402
3.25,441
3.26,439
3.26,464
3.26,488
3.26,487
3.26,485
3.26,491
3.27,487
3.27,488
3.27,480
3.27,467
3.27,477
3.27,473
3.28,487
3.28,497
3.28,490
3.28,519
3.28,538
3.28,532
3.28,548
3.29,539
3.29,523
3.29,516
3.29,506
3.29,502
3.3,487
3.3,471
3.3,457
3.3,444
3.3,442
3.3,444
3.3,435
3.31,423
3.31,412
3.31,405
3.31,403
3.31,394
3.31,405
3.32,427
3.32,424
3.32,434
3.32,429
3.32,416
3.32,418
3.32,412
3.33,422
3.33,421
3.33,427
3.33,420
3.33,424
3.34,425
3.34,420
3.34,413
3.34,434
3.34,437
3.34,452
3.34,452
3.35,470
3.35,476
3.35,489
3.35,476
3.35,469
3.35,465
3.36,469
3.36,470
3.36,476
3.36,514
3.36,515
3.36,509
3.36,509
3.37,502
3.37,500
3.37,500
3.37,492
3.37,481
3.38,470
3.38,461
3.38,452
3.38,439
3.38,440
3.38,440
3.38,427
3.39,418
3.39,410
3.39,402
3.39,390
3.39,384
3.39,379
3.4,369
3.4,360
3.4,365
3.4,368
3.4,376
3.4,377
3.4,367
3.41,366
3.41,359
3.41,348
3.41,339
3.41,328
3.42,321
3.42,322
3.42,319
3.42,313
3.42,317
3.42,311
3.42,302
3.43,295
3.43,294
3.43,313
3.43,320
3.43,344
3.43,348
3.44,345
3.44,350
3.44,345
3.44,345
3.44,335
3.44,325
3.45,316
3.45,311
3.45,322
3.45,318
3.45,318
3.45,319
3.45,319
3.46,348
3.46,344
3.46,338
3.46,329
3.46,324
3.46,323
3.47,319
3.47,320
3.47,312
3.47,307
3.47,346
3.47,363
3.48,378
3.48,386
3.48,396
3.48,394
3.48,391
3.48,387
3.49,387
3.49,381
3.49,372
3.49,359
3.49,348
3.49,340
3.49,335
3.5,356
3.5,370
3.5,372
3.5,366
3.5,364
3.5,362
3.51,361
3.51,354
3.51,351
3.51,344
3.51,337
3.51,330
3.52,331
3.52,336
3.52,332
3.52,326
3.52,320
3.52,321
3.53,321
3.53,315
3.53,312
3.53,308
3.53,309
3.53,326
3.53,332
3.54,343
3.54,335
3.54,327
3.54,317
3.54,307
3.54,299
3.55,296
3.55,302
3.55,325
3.55,335
3.55,336
3.55,347
3.56,369
3.56,364
3.56,361
3.56,383
3.56,393
3.56,394
3.57,412
3.57,409
3.57,406
3.57,399
3.57,395
3.57,394
3.57,430
3.58,427
3.58,438
3.58,431
3.58,427
3.58,414
3.59,402
3.59,405
3.59,398
3.59,407
3.59,411
3.59,404
3.59,410
3.6,423
3.6,415
3.6,406
3.6,419
3.6,417
3.6,406
3.61,423
3.61,423
3.61,436
3.61,440
3.61,441
3.61,435
3.61,435
3.62,453
3.62,469
3.62,480
3.62,479
3.62,478
3.62,467
3.63,472
3.63,475
3.63,462
3.63,462
3.63,464
3.63,467
3.64,457
3.64,450
3.64,440
3.64,431
3.64,422
3.64,424
3.65,420
3.65,414
3.65,408
3.65,405
3.65,394
3.65,385
3.65,376
3.66,368
3.66,362
3.66,358
3.66,356
3.66,348
3.66,344
3.67,339
3.67,336
3.67,330
3.67,324
3.67,318
3.67,317
3.68,320
3.68,340
3.68,339
3.68,343
3.68,333
3.68,330
3.69,343
3.69,347
3.69,356
3.69,362
3.69,361
3.69,374
3.69,386
3.7,393
3.7,435
3.7,446
3.7,435
3.7,424
3.7,410
3.71,399
3.71,387
3.71,379
3.71,372
3.71,362
3.71,352
3.72,347
3.72,342
3.72,335
3.72,334
3.72,336
3.72,329
3.73,319
3.73,311
3.73,310
3.73,313
3.73,303
3.73,301
3.73,309
3.74,306
3.74,329
3.74,342
3.74,336
3.74,327
3.74,327
3.75,334
3.75,324
3.75,313
3.75,305
3.75,297
3.75,291
3.76,282
3.76,283
3.76,299
3.76,312
3.76,303
3.76,312
3.77,325
3.77,319
3.77,312
3.77,310
3.77,300
3.77,291
3.78,283
3.78,278
3.78,271
3.78,267
3.78,268
3.78,265
3.78,264
3.79,263
3.79,256
3.79,254
3.79,250
3.79,248
3.79,242
3.8,236
3.8,231
3.8,228
3.8,233
3.8,231
3.8,228
3.81,224
3.81,218
3.81,223
3.81,229
3.81,224
3.81,231
3.82,228
3.82,223
3.82,221
3.82,215
3.82,210
3.82,207
3.82,201
3.83,196
3.83,190
3.83,189
3.83,185
3.83,180
3.83,178
3.84,173
3.84,175
3.84,173
3.84,171
3.84,171
3.84,168
3.85,166
3.85,166
3.85,169
3.85,170
3.85,167
3.85,161
3.86,158
3.86,156
3.86,157
3.86,158
3.86,155
3.86,152
3.86,147
3.87,143
3.87,143
3.87,142
3.87,138
3.87,137
3.87,138
3.88,138
3.88,135
3.88,132
3.88,128
3.88,127
3.88,128
3.89,129
3.89,125
3.89,123
3.89,122
3.89,121
3.89,122
3.9,120
3.9,118
3.9,118
3.9,117
3.9,123
3.9,121
3.9,118
3.91,114
3.91,111
3.91,113
3.91,112
3.91,110
3.91,108
3.92,106
3.92,107
3.92,107
3.92,104
3.92,103
3.92,103
3.92,103
3.93,105
3.93,103
3.93,103
3.93,103
3.93,102
3.94,106
3.94,103
3.94,102
3.94,102
3.94,101
3.94,103
3.94,102
3.95,101
3.95,99
3.95,98
3.95,100
3.95,100
3.95,97
3.96,96
3.96,95
3.96,95
3.96,97
3.96,96
3.96,95
3.96,94
3.97,95
3.97,96
3.97,95
3.97,93
3.97,93
3.97,92
3.98,92
3.98,94
3.98,92
3.98,91
3.98,90
3.98,89
3.98,91
3.99,91
3.99,88
3.99,88
3.99,90
3.99,92
3.99,92
4.0,91
4.0,91
4.0,90
4.0,90
4.0,92
4.0,90
4.0,89
4.01,89
4.01,89
4.01,90
4.01,90
4.01,88
4.01,87
4.02,86
4.02,87
4.02,89
4.02,87
4.02,86
4.02,86
4.03,86
4.03,88
4.03,87
4.03,85
4.03,84
4.03,83
4.03,86
4.03,87
4.04,84
4.04,84
4.04,84
4.04,84
4.04,86
4.04,85
4.05,84
4.05,83
4.05,82
4.05,84
4.05,85
4.05,83
4.06,84
4.06,84
4.06,86
4.06,86
4.06,85
4.06,85
4.07,84
4.07,84
4.07,86
4.07,86
4.07,84
4.07,84
4.07,84
4.07,85
4.08,86
4.08,84
4.08,84
4.08,83
4.08,84
4.08,86
4.09,85
4.09,84
4.09,85
4.09,84
4.09,86
4.09,86
4.1,84
4.1,84
4.1,84
4.1,84
4.1,86
4.1,84
4.11,83
4.11,83
4.11,83
4.11,85
4.11,84
4.11,83
4.11,83
4.12,82
4.12,83
4.12,84
4.12,82
4.12,82
4.12,82
4.13,82
4.13,84
4.13,82
4.13,82
4.13,81
4.13,81
4.13,82
4.14,83
4.14,81
4.14,81
4.14,81
4.14,82
4.14,84
4.15,82
4.15,82
4.15,81
4.15,81
4.15,84
4.15,84
4.15,82
4.16,81
4.16,81
4.16,83
4.16,84
4.16,83
4.16,83
4.17,82
4.17,83
4.17,86
4.17,85
4.17,83
4.17,84
4.17,84
4.18,85
4.18,86
4.18,84
4.18,83
4.18,82
4.18,83
4.19,84
4.19,83
4.19,81
4.19,81
4.19,81
4.19,83
4.2,83
4.2,82
4.2,80
4.2,79
4.2,80
4.2,82
4.2,80
4.21,79
4.21,79
4.21,81
4.21,82
4.21,81
4.21,81
4.21,80
4.22,79
4.22,81
4.22,82
4.22,80
4.22,80
4.22,80
4.23,81
4.23,82
4.23,80
4.23,80
4.23,79
4.23,78
4.24,80
4.24,80
4.24,78
4.24,79
4.24,79
4.24,81
4.24,81
4.25,80
4.25,79
4.25,78
4.25,80
4.25,81
4.25,80
4.26,79
4.26,79
4.26,80
4.26,81
4.26,81
4.26,80
4.26,80
4.26,80
4.27,81
4.27,82
4.27,80
4.27,80
4.27,80
4.28,80
4.28,82
4.28,81
4.28,81
4.28,80
4.28,80
4.28,82
4.29,83
4.29,80
4.29,81
4.29,81
4.29,81
4.29,81
4.3,79
4.3,78
4.3,79
4.3,79
4.3,82
4.3,81
4.3,80
4.3,81
4.31,82
4.31,84
4.31,85
4.31,83
4.31,83
4.32,83
4.32,84
4.32,87
4.32,85
4.32,83
4.32,84
4.32,85
4.33,87
4.33,87
4.33,85
4.33,84
4.33,83
4.33,84
4.34,86
4.34,84
4.34,83
4.34,84
4.34,84
4.34,86
4.34,85
4.35,85
4.35,84
4.35,84
4.35,85
4.35,86
4.35,83
4.36,83
4.36,82
4.36,83
4.36,85
4.36,83
4.36,82
4.36,82
4.37,82
4.37,85
4.37,86
4.37,83
4.37,83
4.37,84
4.38,85
4.38,86
4.38,84
4.38,84
4.38,83
4.38,83
4.39,86
4.39,85
4.39,83
4.39,82
4.39,81
4.39,82
4.4,83
4.4,81
4.4,80
4.4,78
4.4,79
4.4,81
4.4,80
4.41,79
4.41,80
4.41,79
4.41,81
4.41,81
4.41,80
4.41,79
4.42,79
4.42,81
4.42,82
4.42,80
4.42,80
4.42,81
4.43,81
4.43,82
4.43,82
4.43,81
4.43,81
4.43,80
4.43,83
4.44,83
4.44,82
4.44,82
4.44,82
4.44,83
4.44,84
4.45,83
4.45,83
4.45,89
4.45,98
4.45,105
4.45,105
4.46,113
4.46,116
4.46,115
4.46,113
4.46,114
4.46,121
4.46,124
4.47,123
4.47,125
4.47,124
4.47,125
4.47,122
4.47,119
4.48,116
4.48,122
4.48,121
4.48,120
4.48,117
4.48,113
4.49,111
4.49,109
4.49,106
4.49,104
4.49,103
4.49,105
4.5,103
4.5,102
4.5,101
4.5,100
4.5,101
4.5,101
4.5,98
4.51,97
4.51,96
4.51,98
4.51,100
4.51,98
4.51,98
4.51,101
4.52,102
4.52,104
4.52,106
4.52,104
4.52,100
4.53,102
4.53,108
4.53,112
4.53,110
4.53,110
4.53,112
4.53,114
4.54,112
4.54,111
4.54,111
4.54,109
4.54,115
4.54,121
4.55,119
4.55,117
4.55,113
4.55,111
4.55,111
4.55,109
4.55,106
4.56,103
4.56,101
4.56,110
4.56,112
4.56,116
4.56,122
4.57,121
4.57,119
4.57,118
4.57,116
4.57,115
4.57,112
4.58,109
4.58,107
4.58,105
4.58,102
4.58,101
4.58,102
4.59,104
4.59,102
4.59,103
4.59,104
4.59,101
4.59,98
4.59,95
4.6,95
4.6,93
4.6,94
4.6,97
4.6,97
4.6,96
4.61,99
4.61,104
4.61,102
4.61,99
4.61,97
4.61,97
4.62,96
4.62,97
4.62,101
4.62,104
4.62,103
4.62,101
4.63,107
4.63,114
4.63,118
4.63,116
4.63,118
4.63,120
4.63,129
4.64,134
4.64,137
4.64,146
4.64,162
4.64,173
4.64,174
4.65,183
4.65,197
4.65,200
4.65,197
4.65,191
4.65,186
4.66,180
4.66,174
4.66,172
4.66,176
4.66,173
4.66,168
4.67,163
4.67,161
4.67,161
4.67,158
4.67,155
4.67,150
4.67,147
4.68,145
4.68,143
4.68,140
4.68,136
4.68,133
4.68,130
4.69,126
4.69,124
4.69,122
4.69,118
4.69,115
4.69,119
4.7,120
4.7,117
4.7,115
4.7,114
4.7,117
4.7,115
4.71,113
4.71,110
4.71,108
4.71,111
4.71,116
4.71,116
4.71,122
4.72,122
4.72,120
4.72,119
4.72,117
4.72,115
4.72,113
4.73,111
4.73,113
4.73,117
4.73,117
4.73,121
4.73,121
4.74,132
4.74,143
4.74,142
4.74,143
4.74,141
4.74,140
4.75,139
4.75,138
4.75,136
4.75,132
4.75,130
4.75,131
4.75,128
4.76,129
4.76,129
4.76,126
4.76,124
4.76,122
4.76,119
4.76,116
4.77,116
4.77,118
4.77,119
4.77,116
4.77,121
4.78,125
4.78,126
4.78,124
4.78,120
4.78,121
4.78,124
4.78,123
4.79,120
4.79,116
4.79,114
4.79,115
4.79,119
4.79,120
4.8,119
4.8,118
4.8,116
4.8,118
4.8,121
4.8,121
4.8,118
4.81,115
4.81,113
4.81,113
4.81,112
4.81,109
4.82,108
4.82,109
4.82,107
4.82,107
4.82,106
4.82,104
4.82,102
4.83,99
4.83,96
4.83,102
4.83,106
4.83,103
4.83,108
4.84,120
4.84,121
4.84,118
4.84,117
4.84,118
4.84,122
4.84,123
4.85,123
4.85,122
4.85,121
4.85,124
4.85,122
4.86,122
4.86,126
4.86,130
4.86,133
4.86,129
4.86,125
4.86,123
4.87,124
4.87,132
4.87,129
4.87,128
4.87,126
4.87,126
4.88,126
4.88,127
4.88,124
4.88,122
4.88,118
4.88,118
4.89,116
4.89,122
4.89,121
4.89,125
4.89,131
4.89,134
4.9,133
4.9,136
4.9,138
4.9,137
4.9,137
4.9,136
4.9,133
4.91,132
4.91,131
4.91,131
4.91,136
4.91,135
4.91,135
4.92,135
4.92,137
4.92,136
4.92,132
4.92,128
4.92,128
4.93,128
4.93,127
4.93,125
4.93,121
4.93,123
4.93,123
4.94,122
4.94,125
4.94,124
4.94,120
4.94,124
4.94,123
4.94,119
4.95,121
4.95,125
4.95,127
4.95,127
4.95,128
4.95,125
4.96,123
4.96,125
4.96,135
4.96,145
4.96,145
4.96,153
4.97,151
4.97,151
4.97,152
4.97,148
4.97,147
4.97,144
4.98,141
4.98,144
4.98,149
4.98,152
4.98,159
4.98,163
4.98,176
4.99,194
4.99,204
4.99,203
4.99,207
4.99,201
4.99,195
5.0,190
5.0,188
5.0,183
5.0,182
5.0,180
5.0,179
5.01,177
5.01,181
5.01,186
5.01,202
5.01,205
5.01,200
5.01,196
5.02,199
5.02,213
5.02,217
5.02,221
5.02,233
5.02,240
5.03,257
5.03,259
5.03,255
5.03,277
5.03,299
5.03,316
5.04,323
5.04,317
5.04,326
5.04,332
5.04,339
5.04,359
5.05,362
5.05,368
5.05,397
5.05,403
5.05,436
5.05,462
5.05,460
5.06,464
5.06,459
5.06,459
5.06,459
5.06,448
5.06,445
5.07,437
5.07,424
5.07,418
5.07,425
5.07,428
5.07,438
5.07,461
5.08,456
5.08,457
5.08,483
5.08,497
5.08,501
5.09,516
5.09,511
5.09,516
5.09,506
5.09,507
5.09,502
5.09,505
5.1,536
5.1,567
5.1,557
5.1,554
5.1,550
5.1,533
5.11,522
5.11,523
5.11,517
5.11,506
5.11,515
5.11,507
5.11,491
5.12,477
5.12,464
5.12,472
5.12,462
5.12,466
5.13,467
5.13,461
5.13,451
5.13,442
5.13,429
5.13,421
5.14,422
5.14,415
5.14,406
5.14,395
5.14,396
5.14,383
5.14,376
5.15,372
5.15,375
5.15,368
5.15,370
5.15,372
5.15,374
5.16,374
5.16,367
5.16,364
5.16,389
5.16,391
5.16,387
5.17,377
5.17,369
5.17,367
5.17,369
5.17,360
5.17,354
5.18,350
5.18,348
5.18,351
5.18,350
5.18,349
5.18,358
5.18,352
5.19,366
5.19,378
5.19,369
5.19,362
5.19,374
5.19,383
5.2,418
5.2,440
5.2,439
5.2,434
5.2,441
5.2,446
5.2,435
5.21,423
5.21,415
5.21,411
5.21,403
5.21,396
5.22,392
5.22,379
5.22,371
5.22,364
5.22,370
5.22,367
5.22,365
5.23,356
5.23,351
5.23,341
5.23,334
5.23,329
5.23,333
5.24,338
5.24,332
5.24,341
5.24,346
5.24,348
5.24,350
5.25,342
5.25,333
5.25,332
5.25,325
5.25,318
5.25,315
5.26,306
5.26,296
5.26,287
5.26,288
5.26,298
5.26,298
5.26,295
5.27,303
5.27,306
5.27,307
5.27,304
5.27,297
5.27,295
5.28,286
5.28,282
5.28,288
5.28,295
5.28,290
5.28,290
5.28,285
5.29,285
5.29,281
5.29,286
5.29,284
5.29,281
5.3,280
5.3,278
5.3,302
5.3,310
5.3,338
5.3,352
5.3,348
5.31,344
5.31,341
5.31,339
5.31,330
5.31,322
5.31,318
5.32,315
5.32,307
5.32,303
5.32,319
5.32,323
5.32,336
5.32,335
5.33,337
5.33,332
5.33,327
5.33,321
5.33,313
5.34,306
5.34,300
5.34,295
5.34,307
5.34,321
5.34,317
5.34,314
5.35,320
5.35,328
5.35,327
5.35,321
5.35,318
5.35,315
5.36,305
5.36,304
5.36,317
5.36,320
5.36,321
5.36,317
5.36,312
5.37,307
5.37,318
5.37,337
5.37,361
5.37,361
5.37,355
5.38,385
5.38,423
5.38,434
5.38,436
5.38,464
5.39,478
5.39,467
5.39,471
5.39,493
5.39,491
5.39,486
5.39,517
5.4,552
5.4,548
5.4,546
5.4,553
5.4,567
5.4,566
5.41,562
5.41,562
5.41,558
5.41,544
5.41,533
5.41,527
5.41,513
5.42,503
5.42,493
5.42,483
5.42,466
5.42,452
5.43,448
5.43,437
5.43,427
5.43,418
5.43,414
5.43,409
5.43,399
5.44,393
5.44,397
5.44,396
5.44,420
5.44,441
5.44,436
5.45,436
5.45,424
5.45,423
5.45,410
5.45,397
