Time_s,ADC
0.0,27
0.0,28
0.0,28
0.0,29
0.01,28
0.01,28
0.01,28
0.01,28
0.01,28
0.01,28
0.01,28
0.02,28
0.02,30
0.02,31
0.02,31
0.02,30
0.02,30
0.03,29
0.03,29
0.03,29
0.03,29
0.03,28
0.03,28
0.03,29
0.04,30
0.04,30
0.04,29
0.04,29
0.04,28
0.04,28
0.05,27
0.05,27
0.05,27
0.05,27
0.05,28
0.05,28
0.05,28
0.06,27
0.06,27
0.06,27
0.06,26
0.06,26
0.06,26
0.07,26
0.07,26
0.07,27
0.07,28
0.07,27
0.07,27
0.07,26
0.08,27
0.08,26
0.08,26
0.08,26
0.08,26
0.08,27
0.09,28
0.09,28
0.09,28
0.09,28
0.09,28
0.09,28
0.1,28
0.1,27
0.1,28
0.1,27
0.1,28
0.1,28
0.1,29
0.11,28
0.11,27
0.11,27
0.11,27
0.11,27
0.11,27
0.11,26
0.12,26
0.12,28
0.12,29
0.12,29
0.12,29
0.12,28
0.12,28
0.13,28
0.13,27
0.13,28
0.13,27
0.13,27
0.13,28
0.14,28
0.14,28
0.14,28
0.14,27
0.14,27
0.14,27
0.14,26
0.15,27
0.15,26
0.15,26
0.15,28
0.15,29
0.15,29
0.16,28
0.16,28
0.16,28
0.16,27
0.16,27
0.16,27
0.17,26
0.17,26
0.17,27
0.17,27
0.17,27
0.17,27
0.17,26
0.18,27
0.18,27
0.18,26
0.18,26
0.18,25
0.18,27
0.19,28
0.19,28
0.19,28
0.19,28
0.19,28
0.19,27
0.19,27
0.2,27
0.2,26
0.2,26
0.2,27
0.2,28
0.2,28
0.2,28
0.21,27
0.21,27
0.21,27
0.21,27
0.21,27
0.22,26
0.22,26
0.22,27
0.22,27
0.22,28
0.22,28
0.22,27
0.22,27
0.23,26
0.23,26
0.23,26
0.23,26
0.23,25
0.23,26
0.24,26
0.24,27
0.24,26
0.24,26
0.24,26
0.24,25
0.25,25
0.25,25
0.25,25
0.25,25
0.25,27
0.25,28
0.25,28
0.26,27
0.26,27
0.26,26
0.26,26
0.26,26
0.26,27
0.26,26
0.27,26
0.27,27
0.27,27
0.27,28
0.27,27
0.27,27
0.28,27
0.28,27
0.28,27
0.28,26
0.28,26
0.28,27
0.28,27
0.29,28
0.29,28
0.29,28
0.29,27
0.29,27
0.29,27
0.3,27
0.3,27
0.3,27
0.3,28
0.3,29
0.3,30
0.31,30
0.31,29
0.31,29
0.31,29
0.31,28
0.31,29
0.31,29
0.32,28
0.32,29
0.32,30
0.32,29
0.32,29
0.32,29
0.32,29
0.33,30
0.33,29
0.33,29
0.33,29
0.33,29
0.33,30
0.34,30
0.34,30
0.34,30
0.34,29
0.34,29
0.34,28
0.35,28
0.35,28
0.35,27
0.35,27
0.35,29
0.35,29
0.35,29
0.36,29
0.36,28
0.36,28
0.36,28
0.36,28
0.36,28
0.37,28
0.37,29
0.37,29
0.37,30
0.37,29
0.37,29
0.37,29
0.38,29
0.38,29
0.38,28
0.38,28
0.38,28
0.38,29
0.39,30
0.39,30
0.39,30
0.39,29
0.39,29
0.39,29
0.4,28
0.4,28
0.4,28
0.4,27
0.4,28
0.4,29
0.4,29
0.41,28
0.41,28
0.41,28
0.41,28
0.41,27
0.41,27
0.41,27
0.42,27
0.42,28
0.42,28
0.42,28
0.42,27
0.42,27
0.43,27
0.43,26
0.43,26
0.43,26
0.43,25
0.43,26
0.44,27
0.44,28
0.44,27
0.44,28
0.44,27
0.44,27
0.44,27
0.45,27
0.45,27
0.45,27
0.45,27
0.45,29
0.45,29
0.45,28
0.46,28
0.46,29
0.46,29
0.46,29
0.46,29
0.46,29
0.46,28
0.47,29
0.47,30
0.47,30
0.47,29
0.47,29
0.47,28
0.48,28
0.48,28
0.48,28
0.48,28
0.48,28
0.48,29
0.49,30
0.49,30
0.49,29
0.49,29
0.49,29
0.49,29
0.5,28
0.5,28
0.5,28
0.5,28
0.5,28
0.5,29
0.5,28
0.51,28
0.51,28
0.51,27
0.51,28
0.51,27
0.51,27
0.52,26
0.52,26
0.52,28
0.52,29
0.52,28
0.52,28
0.52,29
0.53,29
0.53,28
0.53,28
0.53,28
0.53,28
0.53,29
0.54,30
0.54,30
0.54,29
0.54,29
0.54,28
0.54,28
0.54,28
0.55,27
0.55,27
0.55,26
0.55,28
0.55,29
0.55,30
0.56,30
0.56,29
0.56,29
0.56,29
0.56,28
0.56,28
0.56,28
0.57,27
0.57,28
0.57,28
0.57,28
0.57,28
0.57,27
0.57,27
0.58,27
0.58,27
0.58,27
0.58,27
0.58,26
0.58,28
0.59,29
0.59,29
0.59,28
0.59,28
0.59,27
0.59,27
0.6,27
0.6,27
0.6,26
0.6,26
0.6,27
0.6,27
0.61,27
0.61,27
0.61,26
0.61,25
0.61,26
0.61,26
0.61,26
0.61,26
0.62,26
0.62,27
0.62,27
0.62,27
0.62,27
0.63,26
0.63,26
0.63,26
0.63,26
0.63,26
0.63,25
0.63,26
0.63,27
0.64,27
0.64,27
0.64,27
0.64,26
0.64,26
0.65,26
0.65,26
0.65,26
0.65,25
0.65,26
0.65,27
0.65,27
0.66,27
0.66,27
0.66,27
0.66,27
0.66,27
0.66,26
0.67,26
0.67,26
0.67,27
0.67,28
0.67,27
0.67,27
0.67,27
0.68,26
0.68,26
0.68,26
0.68,26
0.68,25
0.68,25
0.69,26
0.69,26
0.69,26
0.69,26
0.69,26
0.69,25
0.69,25
0.7,25
0.7,26
0.7,25
0.7,26
0.7,27
0.7,27
0.7,27
0.71,27
0.71,27
0.71,27
0.71,27
0.71,27
0.71,27
0.71,26
0.72,26
0.72,27
0.72,27
0.72,27
0.72,26
0.72,26
0.73,26
0.73,26
0.73,26
0.73,26
0.73,25
0.74,26
0.74,26
0.74,26
0.74,26
0.74,26
0.74,26
0.74,26
0.75,25
0.75,25
0.75,25
0.75,25
0.75,26
0.75,27
0.75,27
0.76,27
0.76,26
0.76,26
0.76,26
0.76,26
0.76,25
0.76,25
0.77,25
0.77,26
0.77,26
0.77,26
0.77,26
0.77,25
0.78,25
0.78,25
0.78,25
0.78,25
0.78,24
0.78,24
0.79,25
0.79,26
0.79,25
0.79,25
0.79,25
0.79,25
0.79,25
0.8,25
0.8,24
0.8,24
0.8,25
0.8,26
0.8,26
0.81,26
0.81,26
0.81,25
0.81,26
0.81,25
0.81,26
0.81,26
0.82,26
0.82,26
0.82,27
0.82,27
0.82,27
0.82,26
0.83,26
0.83,26
0.83,26
0.83,26
0.83,26
0.83,25
0.83,26
0.84,26
0.84,26
0.84,26
0.84,26
0.84,25
0.84,26
0.85,25
0.85,26
0.85,25
0.85,25
0.85,26
0.85,27
0.86,27
0.86,27
0.86,26
0.86,26
0.86,26
0.86,25
0.86,25
0.87,25
0.87,25
0.87,26
0.87,26
0.87,25
0.87,25
0.88,25
0.88,25
0.88,25
0.88,25
0.88,24
0.88,25
0.88,25
0.88,26
0.89,26
0.89,26
0.89,26
0.89,25
0.89,25
0.89,26
0.9,26
0.9,25
0.9,25
0.9,26
0.9,26
0.9,26
0.91,26
0.91,26
0.91,26
0.91,26
0.91,26
0.91,26
0.91,25
0.92,25
0.92,26
0.92,27
0.92,27
0.92,27
0.92,27
0.93,26
0.93,27
0.93,27
0.93,26
0.93,26
0.93,26
0.93,26
0.94,27
0.94,27
0.94,27
0.94,26
0.94,26
0.94,26
0.95,26
0.95,26
0.95,26
0.95,25
0.95,27
0.95,27
0.95,26
0.96,26
0.96,26
0.96,26
0.96,26
0.96,25
0.96,25
0.97,25
0.97,25
0.97,26
0.97,27
0.97,27
0.97,27
0.98,26
0.98,27
0.98,27
0.98,27
0.98,27
0.98,27
0.98,27
0.99,28
0.99,28
0.99,28
0.99,27
0.99,27
0.99,27
1.0,27
1.0,27
1.0,27
1.0,26
1.0,26
1.0,27
1.0,28
1.01,27
1.01,27
1.01,27
1.01,27
1.01,26
1.01,27
1.01,26
1.02,26
1.02,27
1.02,27
1.02,27
1.02,26
1.02,27
1.03,27
1.03,26
1.03,26
1.03,26
1.03,26
1.03,25
1.03,27
1.04,27
1.04,27
1.04,26
1.04,27
1.04,27
1.04,27
1.05,27
1.05,27
1.05,26
1.05,26
1.05,27
1.05,28
1.05,28
1.06,27
1.06,27
1.06,28
1.06,28
1.06,28
1.06,28
1.07,27
1.07,27
1.07,27
1.07,28
1.07,28
1.07,29
1.08,28
1.08,28
1.08,27
1.08,28
1.08,28
1.08,28
1.08,28
1.09,28
1.09,29
1.09,33
1.09,38
1.09,41
1.09,43
1.1,43
1.1,42
1.1,44
1.1,48
1.1,56
1.1,65
1.1,73
1.11,77
1.11,77
1.11,75
1.11,74
1.11,72
1.11,71
1.12,70
1.12,68
1.12,66
1.12,65
1.12,63
1.12,61
1.12,61
1.13,60
1.13,60
1.13,58
1.13,57
1.13,57
1.13,56
1.13,55
1.14,54
1.14,52
1.14,51
1.14,49
1.14,49
1.14,47
1.15,46
1.15,46
1.15,45
1.15,44
1.15,43
1.15,43
1.16,42
1.16,42
1.16,41
1.16,42
1.16,42
1.16,42
1.16,40
1.17,40
1.17,40
1.17,41
1.17,40
1.17,39
1.17,39
1.18,39
1.18,39
1.18,39
1.18,38
1.18,38
1.18,37
1.18,38
1.19,40
1.19,40
1.19,40
1.19,40
1.19,39
1.2,38
1.2,38
1.2,42
1.2,47
1.2,47
1.2,50
1.2,52
1.21,52
1.21,52
1.21,52
1.21,52
1.21,50
1.21,50
1.21,48
1.22,48
1.22,47
1.22,48
1.22,47
1.22,47
1.22,48
1.23,50
1.23,52
1.23,54
1.23,58
1.23,61
1.23,61
1.23,59
1.24,60
1.24,64
1.24,69
1.24,72
1.24,71
1.24,72
1.25,73
1.25,74
1.25,74
1.25,73
1.25,73
1.25,71
1.25,71
1.26,72
1.26,72
1.26,70
1.26,69
1.26,68
1.26,69
1.26,66
1.27,65
1.27,64
1.27,64
1.27,63
1.27,67
1.27,70
1.28,78
1.28,87
1.28,95
1.28,131
1.28,169
1.28,177
1.29,177
1.29,182
1.29,185
1.29,190
1.29,190
1.29,189
1.3,191
1.3,193
1.3,195
1.3,192
1.3,189
1.3,190
1.3,190
1.31,187
1.31,180
1.31,174
1.31,171
1.31,168
1.31,166
1.32,162
1.32,158
1.32,157
1.32,153
1.32,149
1.33,149
1.33,147
1.33,147
1.33,146
1.33,142
1.33,142
1.33,145
1.34,149
1.34,153
1.34,152
1.34,148
1.34,144
1.34,144
1.35,158
1.35,167
1.35,172
1.35,195
1.35,203
1.35,199
1.35,198
1.36,193
1.36,187
1.36,183
1.36,178
1.36,172
1.36,167
1.37,165
1.37,167
1.37,168
1.37,164
1.37,164
1.37,165
1.38,160
1.38,157
1.38,153
1.38,148
1.38,149
1.38,150
1.38,146
1.39,143
1.39,141
1.39,148
1.39,158
1.39,166
1.39,164
1.4,164
1.4,169
1.4,173
1.4,175
1.4,175
1.4,174
1.4,174
1.41,171
1.41,173
1.41,172
1.41,177
1.41,179
1.42,182
1.42,195
1.42,200
1.42,196
1.42,190
1.42,185
1.42,179
1.43,174
1.43,171
1.43,171
1.43,171
1.43,168
1.43,166
1.44,167
1.44,163
1.44,160
1.44,161
1.44,162
1.44,160
1.45,156
1.45,151
1.45,146
1.45,142
1.45,138
1.45,134
1.46,132
1.46,134
1.46,133
1.46,134
1.46,137
1.46,139
1.47,137
1.47,137
1.47,144
1.47,153
1.47,157
1.47,157
1.48,152
1.48,151
1.48,150
1.48,158
1.48,169
1.48,186
1.48,199
1.49,197
1.49,197
1.49,201
1.49,207
1.49,218
1.49,228
1.5,233
1.5,230
1.5,231
1.5,238
1.5,240
1.5,236
1.5,237
1.51,235
1.51,229
1.51,223
1.51,218
1.51,212
1.51,205
1.52,198
1.52,193
1.52,190
1.52,184
1.52,184
1.52,182
1.53,180
1.53,179
1.53,175
1.53,175
1.53,175
1.53,176
1.54,176
1.54,173
1.54,168
1.54,170
1.54,170
1.54,168
1.54,173
1.55,175
1.55,174
1.55,169
1.55,165
1.55,165
1.55,169
1.56,176
1.56,182
1.56,187
1.56,193
1.56,192
1.56,190
1.57,191
1.57,189
1.57,187
1.57,188
1.57,189
1.57,188
1.58,182
1.58,177
1.58,175
1.58,174
1.58,175
1.58,178
1.59,182
1.59,179
1.59,174
1.59,176
1.59,173
1.59,179
1.6,183
1.6,180
1.6,178
1.6,177
1.6,176
1.6,172
1.6,167
1.61,165
1.61,160
1.61,155
1.61,154
1.61,154
1.61,153
1.61,151
1.62,147
1.62,144
1.62,145
1.62,147
1.62,147
1.63,143
1.63,140
1.63,144
1.63,144
1.63,149
1.63,156
1.63,154
1.64,149
1.64,145
1.64,147
1.64,152
1.64,155
1.64,163
1.65,169
1.65,165
1.65,162
1.65,163
1.65,166
1.65,165
1.65,161
1.66,156
1.66,152
1.66,149
1.66,146
1.66,148
1.66,152
1.67,154
1.67,155
1.67,153
1.67,149
1.67,149
1.67,153
1.68,153
1.68,149
1.68,150
1.68,160
1.68,164
1.68,160
1.69,154
1.69,150
1.69,150
1.69,156
1.69,164
1.69,170
1.7,169
1.7,164
1.7,161
1.7,164
1.7,166
1.7,165
1.71,164
1.71,162
1.71,159
1.71,156
1.71,156
1.71,165
1.72,175
1.72,176
1.72,173
1.72,168
1.72,163
1.72,159
1.72,155
1.73,153
1.73,156
1.73,158
1.73,155
1.73,155
1.73,158
1.74,159
1.74,156
1.74,153
1.74,152
1.74,150
1.74,157
1.75,168
1.75,172
1.75,170
1.75,176
1.75,179
1.75,177
1.75,177
1.76,180
1.76,181
1.76,176
1.76,172
1.76,168
1.76,163
1.77,163
1.77,163
1.77,160
1.77,157
1.77,152
1.77,148
1.77,147
1.78,142
1.78,147
1.78,158
1.78,167
1.78,173
1.78,179
1.79,192
1.79,201
1.79,199
1.79,196
1.79,202
1.79,210
1.8,217
1.8,220
1.8,225
1.8,232
1.8,234
1.8,231
1.81,227
1.81,222
1.81,215
1.81,211
1.81,208
1.81,207
1.82,207
1.82,204
1.82,197
1.82,191
1.82,188
1.82,188
1.83,185
1.83,190
1.83,194
1.83,195
1.83,190
1.83,187
1.84,183
1.84,185
1.84,186
1.84,180
1.84,176
1.84,180
1.84,179
1.85,183
1.85,192
1.85,194
1.85,188
1.85,183
1.85,186
1.86,186
1.86,181
1.86,181
1.86,179
1.86,177
1.86,172
1.86,172
1.87,169
1.87,167
1.87,163
1.87,165
1.87,169
1.87,171
1.88,170
1.88,171
1.88,168
1.88,163
1.88,161
1.88,159
1.89,154
1.89,152
1.89,152
1.89,150
1.89,145
1.89,141
1.9,138
1.9,151
1.9,166
1.9,171
1.9,169
1.9,166
1.9,162
1.91,158
1.91,157
1.91,154
1.91,154
1.91,153
1.91,152
1.92,158
1.92,166
1.92,164
1.92,164
1.92,162
1.92,165
1.93,174
1.93,180
1.93,185
1.93,186
1.93,184
1.93,186
1.93,186
1.94,183
1.94,191
1.94,200
1.94,200
1.94,196
1.95,200
1.95,202
1.95,208
1.95,217
1.95,220
1.95,219
1.95,214
1.96,209
1.96,208
1.96,204
1.96,200
1.96,194
1.97,190
1.97,188
1.97,197
1.97,202
1.97,198
1.97,192
1.97,189
1.98,187
1.98,185
1.98,182
1.98,186
1.98,186
1.98,182
1.98,177
1.99,172
1.99,171
1.99,175
1.99,178
1.99,181
1.99,187
2.0,190
2.0,188
2.0,195
2.0,217
2.0,238
2.0,247
2.01,246
2.01,241
2.01,252
2.01,259
2.01,258
2.01,254
2.02,247
2.02,239
2.02,234
2.02,231
2.02,228
2.02,227
2.03,224
2.03,223
2.03,227
2.03,236
2.03,244
2.03,241
2.03,237
2.04,232
2.04,229
2.04,233
2.04,238
2.04,239
2.04,243
2.05,245
2.05,259
2.05,265
2.05,263
2.05,260
2.05,265
2.06,270
2.06,268
2.06,261
2.06,255
2.06,256
2.06,259
2.07,261
2.07,258
2.07,253
2.07,251
2.07,255
2.07,261
2.07,256
2.08,257
2.08,263
2.08,268
2.08,267
2.08,262
2.08,256
2.09,250
2.09,244
2.09,253
2.09,262
2.09,261
2.09,257
2.1,249
2.1,244
2.1,247
2.1,258
2.1,264
2.1,258
2.11,257
2.11,255
2.11,254
2.11,260
2.11,263
2.11,256
2.11,254
2.12,249
2.12,247
2.12,242
2.12,242
2.12,239
2.12,232
2.13,228
2.13,228
2.13,224
2.13,216
2.13,213
2.13,220
2.14,228
2.14,224
2.14,225
2.14,235
2.14,242
2.14,244
2.15,237
2.15,230
2.15,223
2.15,217
2.15,211
2.15,206
2.15,199
2.16,193
2.16,186
2.16,185
2.16,186
2.16,188
2.16,192
2.17,195
2.17,193
2.17,197
2.17,196
2.17,191
2.17,190
2.18,185
2.18,187
2.18,190
2.18,191
2.18,187
2.18,184
2.19,187
2.19,191
2.19,197
2.19,201
2.19,200
2.19,197
2.19,202
2.2,205
2.2,208
2.2,212
2.2,210
2.2,222
2.2,240
2.21,240
2.21,236
2.21,234
2.21,234
2.21,230
2.21,223
2.22,217
2.22,210
2.22,205
2.22,202
2.22,197
2.22,191
2.23,189
2.23,194
2.23,195
2.23,192
2.23,187
2.23,187
2.23,187
2.24,185
2.24,183
2.24,180
2.24,177
2.24,187
2.24,186
2.25,188
2.25,187
2.25,181
2.25,179
2.25,183
2.25,188
2.26,194
2.26,198
2.26,196
2.26,195
2.26,199
2.26,203
2.27,201
2.27,196
2.27,191
2.27,187
2.27,181
2.27,182
2.28,185
2.28,183
2.28,181
2.28,177
2.28,177
2.28,194
2.28,209
2.29,210
2.29,206
2.29,215
2.29,225
2.29,229
2.29,235
2.3,231
2.3,234
2.3,233
2.3,231
2.3,232
2.3,235
2.31,231
2.31,224
2.31,216
2.31,214
2.31,215
2.31,209
2.32,205
2.32,206
2.32,206
2.32,205
2.32,204
2.32,211
2.32,212
2.33,206
2.33,207
2.33,227
2.33,244
2.33,247
2.33,239
2.34,235
2.34,242
2.34,249
2.34,248
2.34,246
2.34,240
2.34,235
2.35,233
2.35,236
2.35,233
2.35,227
2.35,219
2.36,212
2.36,213
2.36,215
2.36,220
2.36,225
2.36,227
2.36,221
2.37,222
2.37,223
2.37,232
2.37,250
2.37,259
2.37,254
2.38,254
2.38,261
2.38,272
2.38,268
2.38,260
2.38,256
2.38,257
2.39,253
2.39,256
2.39,252
2.39,245
2.39,242
2.4,241
2.4,245
2.4,244
2.4,240
2.4,239
2.4,245
2.4,254
2.41,256
2.41,253
2.41,260
2.41,277
2.41,294
2.41,291
2.42,294
2.42,303
2.42,318
2.42,325
2.42,324
2.42,320
2.42,310
2.43,303
2.43,294
2.43,286
2.43,277
2.43,270
2.44,265
2.44,261
2.44,262
2.44,259
2.44,255
2.44,254
2.44,261
2.45,256
2.45,257
2.45,259
2.45,261
2.45,256
2.45,257
2.46,253
2.46,252
2.46,251
2.46,244
2.46,237
2.46,229
2.47,223
2.47,217
2.47,209
2.47,205
2.47,204
2.47,203
2.48,196
2.48,193
2.48,195
2.48,191
2.48,189
2.48,191
2.48,188
2.49,184
2.49,183
2.49,181
2.49,176
2.49,170
2.49,167
2.5,164
2.5,161
2.5,164
2.5,160
2.5,155
2.5,151
2.51,147
2.51,145
2.51,142
2.51,141
2.51,141
2.51,145
2.51,145
2.52,142
2.52,141
2.52,169
2.52,183
2.52,188
2.52,202
2.53,214
2.53,221
2.53,221
2.53,216
2.53,214
2.53,209
2.54,220
2.54,231
2.54,235
2.54,231
2.54,232
2.54,232
2.55,227
2.55,222
2.55,217
2.55,222
2.55,237
2.55,243
2.55,242
2.56,249
2.56,251
2.56,251
2.56,249
2.56,245
2.56,242
2.57,235
2.57,234
2.57,230
2.57,226
2.57,233
2.57,234
2.58,228
2.58,227
2.58,230
2.58,224
2.58,233
2.58,246
2.59,240
2.59,240
2.59,252
2.59,273
2.59,284
2.59,279
2.59,279
2.6,277
2.6,277
2.6,277
2.6,272
2.6,267
2.6,261
2.61,254
2.61,259
2.61,262
2.61,254
2.61,245
2.61,240
2.62,247
2.62,250
2.62,248
2.62,254
2.62,261
2.62,266
2.63,262
2.63,263
2.63,259
2.63,251
2.63,245
2.63,238
2.63,234
2.64,234
2.64,228
2.64,230
2.64,255
2.64,261
2.64,264
2.65,275
2.65,280
2.65,274
2.65,266
2.65,258
2.65,251
2.66,250
2.66,247
2.66,239
2.66,236
2.66,254
2.66,258
2.67,253
2.67,266
2.67,289
2.67,299
2.67,294
2.67,287
2.67,285
2.68,284
2.68,278
2.68,271
2.68,279
2.68,296
2.68,299
2.69,291
2.69,285
2.69,285
2.69,277
2.69,270
2.69,267
2.7,264
2.7,262
2.7,253
2.7,253
2.7,253
2.7,249
2.71,242
2.71,238
2.71,244
2.71,268
2.71,281
2.71,277
2.71,285
2.72,294
2.72,294
2.72,288
2.72,291
2.72,306
2.72,310
2.73,304
2.73,294
2.73,287
2.73,284
2.73,278
2.73,286
2.74,300
2.74,298
2.74,297
2.74,292
2.74,288
2.74,291
2.75,293
2.75,288
2.75,280
2.75,281
2.75,283
2.75,284
2.75,277
2.76,273
2.76,276
2.76,275
2.76,280
2.76,273
2.76,271
2.77,269
2.77,270
2.77,270
2.77,264
2.77,267
2.77,261
2.78,256
2.78,252
2.78,261
2.78,288
2.78,303
2.78,297
2.79,300
2.79,319
2.79,328
2.79,322
2.79,311
2.79,305
2.79,298
2.8,290
2.8,285
2.8,277
2.8,269
2.8,264
2.8,258
2.81,249
2.81,241
2.81,236
2.81,229
2.81,226
2.81,229
2.82,224
2.82,219
2.82,221
2.82,223
2.82,226
2.82,230
2.83,237
2.83,235
2.83,241
2.83,250
2.83,257
2.83,268
2.83,288
2.84,288
2.84,294
2.84,310
2.84,319
2.84,312
2.84,302
2.85,295
2.85,286
2.85,282
2.85,277
2.85,271
2.85,262
2.86,253
2.86,250
2.86,252
2.86,249
2.86,262
2.86,262
2.87,267
2.87,263
2.87,273
2.87,282
2.87,288
2.87,285
2.88,288
2.88,285
2.88,277
2.88,275
2.88,272
2.88,269
2.88,286
2.89,310
2.89,323
2.89,318
2.89,331
2.89,341
2.89,332
2.9,321
2.9,317
2.9,312
2.9,307
2.9,302
2.9,294
2.91,293
2.91,305
2.91,313
2.91,307
2.91,310
2.91,314
2.92,307
2.92,299
2.92,291
2.92,283
2.92,274
2.92,265
2.92,262
2.93,263
2.93,264
2.93,269
2.93,267
2.93,264
2.93,269
2.94,275
2.94,276
2.94,275
2.94,277
2.94,273
2.94,265
2.95,271
2.95,273
2.95,264
2.95,259
2.95,261
2.95,256
2.96,250
2.96,251
2.96,261
2.96,277
2.96,274
2.96,279
2.96,282
2.97,278
2.97,276
2.97,279
2.97,280
2.97,278
2.97,276
2.98,289
2.98,293
2.98,285
2.98,281
2.98,284
2.98,280
2.98,273
2.99,264
2.99,260
2.99,285
2.99,316
2.99,317
3.0,342
3.0,355
3.0,347
3.0,340
3.0,329
3.0,322
3.0,315
3.01,312
3.01,310
3.01,306
3.01,310
3.01,304
3.01,306
3.02,304
3.02,296
3.02,291
3.02,282
3.02,280
3.02,293
3.02,306
3.03,316
3.03,375
3.03,396
3.03,394
3.03,401
3.04,395
3.04,385
3.04,375
3.04,363
3.04,353
3.04,344
3.04,332
3.05,324
3.05,327
3.05,337
3.05,351
3.05,363
3.05,368
3.06,360
3.06,351
3.06,390
3.06,450
3.06,466
3.06,459
3.06,509
3.07,546
3.07,542
3.07,578
3.07,621
3.07,607
3.08,598
3.08,583
3.08,567
3.08,572
3.08,572
3.08,555
3.08,554
3.09,564
3.09,565
3.09,546
3.09,529
3.09,517
3.09,511
3.1,508
3.1,506
3.1,494
3.1,498
3.1,489
3.1,477
3.1,463
3.11,452
3.11,442
3.11,429
3.11,418
3.11,423
3.12,425
3.12,412
3.12,404
3.12,417
3.12,434
3.12,436
3.12,425
3.13,424
3.13,425
3.13,418
3.13,418
3.13,425
3.13,455
3.14,458
3.14,499
3.14,541
3.14,549
3.14,555
3.14,546
3.14,543
3.15,541
3.15,531
3.15,542
3.15,564
3.15,562
3.15,544
3.16,539
3.16,533
3.16,530
3.16,538
3.16,527
3.16,531
3.17,562
3.17,555
3.17,572
3.17,598
3.17,605
3.17,589
3.18,586
3.18,587
3.18,572
3.18,557
3.18,545
3.18,537
3.18,535
3.19,545
3.19,604
3.19,626
3.19,613
3.19,603
3.19,588
3.2,578
3.2,570
3.2,552
3.2,545
3.2,540
3.2,532
3.21,535
3.21,563
3.21,559
3.21,593
3.21,600
3.21,591
3.22,580
3.22,567
3.22,563
3.22,566
3.22,565
3.22,559
3.23,545
3.23,551
3.23,557
3.23,567
3.23,561
3.23,572
3.23,611
3.24,612
3.24,606
3.24,601
3.24,598
3.24,600
3.24,589
3.25,573
3.25,557
3.25,547
3.25,552
3.25,547
3.25,550
3.26,559
3.26,557
3.26,560
3.26,544
3.26,528
3.26,517
3.27,504
3.27,499
3.27,483
3.27,472
3.27,472
3.27,481
3.27,475
3.28,473
3.28,534
3.28,553
3.28,595
3.28,599
3.28,581
3.29,566
3.29,550
3.29,544
3.29,542
3.29,548
3.29,539
3.3,523
3.3,529
3.3,539
3.3,536
3.3,529
3.3,516
3.31,504
3.31,502
3.31,498
3.31,484
3.31,471
3.31,461
3.31,449
3.32,436
3.32,424
3.32,419
3.32,409
3.32,395
3.32,392
3.33,384
3.33,373
3.33,376
3.33,377
3.33,371
3.33,380
3.34,393
3.34,386
3.34,373
3.34,367
3.34,367
3.34,363
3.35,353
3.35,343
3.35,334
3.35,328
3.35,319
3.35,316
3.35,310
3.36,302
3.36,296
3.36,289
3.36,282
3.36,279
3.36,272
3.37,271
3.37,268
3.37,265
3.37,273
3.37,282
3.37,281
3.38,276
3.38,271
3.38,278
3.38,290
3.38,291
3.38,299
3.39,297
3.39,297
3.39,288
3.39,280
3.39,272
3.39,271
3.39,274
3.4,275
3.4,269
3.4,260
3.4,254
3.4,259
3.4,265
3.41,261
3.41,275
3.41,323
3.41,330
3.41,360
3.41,397
3.42,397
3.42,386
3.42,389
3.42,394
3.42,388
3.42,404
3.43,421
3.43,411
3.43,410
3.43,404
3.43,414
3.43,423
3.43,416
3.44,402
3.44,389
3.44,377
3.44,372
3.44,365
3.44,376
3.45,366
3.45,364
3.45,393
3.45,389
3.45,398
3.45,403
3.46,401
3.46,399
3.46,397
3.46,402
3.46,403
3.46,394
3.47,390
3.47,378
3.47,367
3.47,358
3.47,349
3.47,353
3.48,355
3.48,346
3.48,344
3.48,348
3.48,338
3.48,330
3.48,325
3.49,324
3.49,322
3.49,320
3.49,312
3.49,305
3.49,306
3.5,305
3.5,302
3.5,303
3.5,304
3.5,296
3.5,288
3.51,279
3.51,275
3.51,271
3.51,264
3.51,268
3.51,279
3.52,275
3.52,277
3.52,317
3.52,365
3.52,408
3.52,406
3.52,431
3.53,468
3.53,489
3.53,486
3.53,478
3.53,465
3.53,452
3.54,440
3.54,429
3.54,418
3.54,430
3.54,435
3.54,437
3.55,443
3.55,436
3.55,427
3.55,433
3.55,432
3.55,429
3.56,421
3.56,420
3.56,411
3.56,400
3.56,398
3.56,387
3.56,381
3.57,386
3.57,384
3.57,382
3.57,379
3.57,377
3.57,366
3.58,355
3.58,345
3.58,334
3.58,324
3.58,314
3.58,308
3.59,312
3.59,309
3.59,323
3.59,334
3.59,329
3.59,323
3.6,323
3.6,318
3.6,310
3.6,307
3.6,297
3.6,291
3.6,284
3.61,279
3.61,286
3.61,294
3.61,348
3.61,370
3.61,364
3.62,377
3.62,386
3.62,391
3.62,406
3.62,405
3.62,408
3.62,417
3.63,427
3.63,449
3.63,442
3.63,445
3.63,458
3.64,478
3.64,477
3.64,471
3.64,463
3.64,451
3.64,456
3.64,473
3.65,519
3.65,552
3.65,541
3.65,545
3.65,566
3.65,564
3.66,580
3.66,595
3.66,580
3.66,574
3.66,575
3.66,593
3.67,611
3.67,602
3.67,593
3.67,602
3.67,597
3.67,581
3.68,563
3.68,548
3.68,539
3.68,535
3.68,525
3.68,521
3.68,509
3.69,499
3.69,486
3.69,475
3.69,460
3.69,450
3.69,438
3.7,424
3.7,416
3.7,407
3.7,397
3.7,390
3.7,380
3.71,373
3.71,364
3.71,357
3.71,379
3.71,382
3.71,400
3.72,423
3.72,431
3.72,447
3.72,477
3.72,475
3.72,462
3.72,456
3.73,456
3.73,453
3.73,441
3.73,442
3.73,464
3.73,466
3.74,462
3.74,452
3.74,445
3.74,455
3.74,497
3.74,497
3.75,522
3.75,561
3.75,591
3.75,578
3.75,568
3.75,560
3.76,552
3.76,540
3.76,524
3.76,506
3.76,495
3.76,487
3.77,479
3.77,495
3.77,488
3.77,481
3.77,471
3.77,463
3.77,458
3.78,451
3.78,438
3.78,423
3.78,413
3.78,427
3.78,433
3.79,435
3.79,458
3.79,455
3.79,454
3.79,444
3.79,443
3.79,444
3.8,469
3.8,490
3.8,477
3.8,479
3.8,507
3.81,505
3.81,491
3.81,474
3.81,460
3.81,453
3.81,442
3.81,429
3.82,420
3.82,409
3.82,397
3.82,403
3.82,424
3.82,420
3.83,428
3.83,428
3.83,428
3.83,420
3.83,413
3.83,402
3.83,389
3.84,376
3.84,363
3.84,351
3.84,339
3.84,330
3.85,333
3.85,325
3.85,336
3.85,345
3.85,338
3.85,351
3.85,367
3.86,374
3.86,368
3.86,373
3.86,366
3.86,361
3.86,359
3.87,357
3.87,349
3.87,356
3.87,359
3.87,349
3.87,348
3.87,376
3.88,418
3.88,416
3.88,429
3.88,457
3.88,453
3.89,442
3.89,439
3.89,437
3.89,423
3.89,411
3.89,417
3.89,410
3.9,409
3.9,407
3.9,395
3.9,382
3.9,374
3.9,380
3.91,371
3.91,371
3.91,382
3.91,383
3.91,373
3.91,371
3.91,362
3.92,354
3.92,343
3.92,336
3.92,326
3.92,317
3.92,336
3.93,348
3.93,344
3.93,347
3.93,349
3.93,357
3.93,359
3.94,354
3.94,365
3.94,360
3.94,350
3.94,347
3.94,345
3.95,348
3.95,344
3.95,336
3.95,333
3.95,337
3.95,358
3.95,370
3.96,365
3.96,370
3.96,371
3.96,364
3.96,356
3.96,368
3.97,368
3.97,367
3.97,369
3.97,362
3.97,353
3.97,347
3.98,337
3.98,329
3.98,325
3.98,327
3.98,320
3.98,321
3.98,315
3.99,307
3.99,298
3.99,312
3.99,321
3.99,319
3.99,334
4.0,346
4.0,341
4.0,333
4.0,328
4.0,320
4.0,327
4.01,335
4.01,329
4.01,320
4.01,311
4.01,305
4.01,298
4.02,293
4.02,303
4.02,299
4.02,299
4.02,299
4.02,293
4.03,294
4.03,302
4.03,303
4.03,294
4.03,288
4.03,282
4.03,277
4.04,275
4.04,277
4.04,271
4.04,264
4.04,262
4.04,266
4.05,263
4.05,259
4.05,253
4.05,245
4.05,238
4.05,240
4.06,249
4.06,246
4.06,246
4.06,260
4.06,270
4.06,266
4.07,258
4.07,249
4.07,241
4.07,234
4.07,226
4.07,219
4.07,214
4.08,215
4.08,222
4.08,249
4.08,260
4.08,256
4.08,271
4.09,284
4.09,298
4.09,308
4.09,303
4.09,299
4.09,291
4.1,285
4.1,280
4.1,277
4.1,273
4.1,264
4.1,255
4.11,248
4.11,241
4.11,234
4.11,238
4.11,236
4.11,234
4.11,228
4.12,224
4.12,218
4.12,211
4.12,207
4.12,201
4.12,198
4.13,193
4.13,187
4.13,182
4.13,181
4.13,186
4.13,186
4.14,181
4.14,177
4.14,180
4.14,177
4.14,177
4.14,182
4.15,180
4.15,192
4.15,206
4.15,202
4.15,200
4.15,201
4.15,202
4.16,201
4.16,196
4.16,192
4.16,191
4.16,185
4.16,179
4.17,174
4.17,174
4.17,175
4.17,171
4.17,166
4.17,161
4.18,156
4.18,153
4.18,158
4.18,167
4.18,175
4.18,202
4.19,207
4.19,205
4.19,211
4.19,210
4.19,204
4.19,198
4.2,191
4.2,186
4.2,181
4.2,175
4.2,169
4.2,165
4.2,159
4.21,155
4.21,151
4.21,165
4.21,190
4.21,194
4.21,214
4.22,234
4.22,240
4.22,240
4.22,238
4.22,233
4.22,226
4.23,220
4.23,215
4.23,210
4.23,205
4.23,199
4.23,192
4.24,186
4.24,181
4.24,180
4.24,179
4.24,174
4.24,168
4.24,163
4.25,158
4.25,154
4.25,152
4.25,149
4.25,144
4.25,143
4.26,144
4.26,142
4.26,141
4.26,138
4.26,134
4.26,130
4.26,128
4.27,124
4.27,127
4.27,129
4.27,126
4.27,141
4.28,146
4.28,153
4.28,165
4.28,166
4.28,163
4.28,163
4.28,162
4.29,158
4.29,154
4.29,149
4.29,145
4.29,144
4.29,152
4.3,162
4.3,162
4.3,171
4.3,173
4.3,174
4.3,176
4.3,177
4.31,175
4.31,170
4.31,165
4.31,162
4.31,159
4.32,156
4.32,151
4.32,147
4.32,143
4.32,138
4.32,134
4.32,130
4.33,127
4.33,125
4.33,122
4.33,120
4.33,117
4.33,113
4.34,111
4.34,108
4.34,108
4.34,106
4.34,107
4.34,110
4.34,113
4.35,115
4.35,113
4.35,117
4.35,119
4.35,126
4.36,137
4.36,141
4.36,141
4.36,149
4.36,155
4.36,150
4.36,156
4.37,174
4.37,178
4.37,180
4.37,194
4.37,195
4.37,191
4.38,186
4.38,180
4.38,174
4.38,168
4.38,164
4.38,160
4.39,158
4.39,162
4.39,158
4.39,156
4.39,152
4.39,147
4.4,143
4.4,139
4.4,135
4.4,131
4.4,127
4.4,123
4.4,119
4.41,116
4.41,112
4.41,109
4.41,107
4.41,104
4.41,102
4.42,99
4.42,96
4.42,93
4.42,91
4.42,90
4.42,88
4.42,86
4.43,87
4.43,88
4.43,87
4.43,85
4.43,83
4.43,80
4.44,78
4.44,78
4.44,78
4.44,76
4.44,77
4.44,80
4.45,81
4.45,81
4.45,83
4.45,82
4.45,82
4.45,81
4.45,80
4.46,82
4.46,82
4.46,83
4.46,83
4.46,97
4.46,116
4.47,122
4.47,151
4.47,163
4.47,160
4.47,162
4.47,163
4.47,159
4.48,156
4.48,152
4.48,148
4.48,144
4.48,141
4.48,138
4.49,133
4.49,130
4.49,128
4.49,125
4.49,121
4.49,120
4.5,123
4.5,123
4.5,120
4.5,122
4.5,127
4.5,130
4.51,129
4.51,126
4.51,122
4.51,118
4.51,115
4.51,112
4.51,110
4.52,107
4.52,104
4.52,101
4.52,99
4.52,96
4.52,94
4.53,91
4.53,90
4.53,88
4.53,86
4.53,84
4.53,82
4.53,80
4.54,79
4.54,79
4.54,78
4.54,79
4.54,83
4.54,85
4.55,83
4.55,86
4.55,89
4.55,89
4.55,86
4.55,87
4.55,91
4.56,94
4.56,92
4.56,91
4.56,93
4.56,94
4.56,91
4.57,88
4.57,86
4.57,84
4.57,81
4.57,80
4.57,79
4.57,77
4.58,76
4.58,78
4.58,78
4.58,77
4.58,75
4.58,75
4.59,74
4.59,72
4.59,70
4.59,68
4.59,66
4.59,66
4.59,65
4.6,65
4.6,66
4.6,68
4.6,67
4.6,69
4.6,74
4.61,77
4.61,79
4.61,77
4.61,77
4.61,75
4.61,74
4.61,72
4.62,70
4.62,68
4.62,67
4.62,65
4.62,64
4.63,64
4.63,66
4.63,64
4.63,63
4.63,61
4.63,61
4.63,60
4.64,60
4.64,59
4.64,59
4.64,62
4.64,62
4.64,61
4.64,61
4.65,64
4.65,67
4.65,66
4.65,65
4.65,64
4.65,64
4.66,64
4.66,63
4.66,63
4.66,63
4.66,61
4.66,60
4.67,59
4.67,59
4.67,57
4.67,56
4.67,55
4.67,54
4.67,53
4.68,52
4.68,52
4.68,52
4.68,55
4.68,56
4.68,59
4.69,61
4.69,62
4.69,64
4.69,66
4.69,67
4.69,67
4.7,76
4.7,84
4.7,88
4.7,90
4.7,89
4.7,92
4.7,97
4.71,101
4.71,104
4.71,104
4.71,102
4.71,104
4.71,106
4.72,104
4.72,107
4.72,110
4.72,113
4.72,112
4.72,109
4.72,106
4.73,110
4.73,110
4.73,109
4.73,108
4.73,105
4.73,106
4.74,103
4.74,101
4.74,98
4.74,96
4.74,93
4.74,90
4.75,88
4.75,87
4.75,87
4.75,85
4.75,83
4.75,81
4.75,80
4.76,78
4.76,76
4.76,75
4.76,75
4.76,74
4.76,72
4.76,70
4.77,68
4.77,67
4.77,66
4.77,64
4.77,63
4.77,63
4.78,61
4.78,60
4.78,60
4.78,63
4.78,62
4.78,64
4.78,64
4.79,65
4.79,67
4.79,66
4.79,66
4.79,67
4.79,67
4.8,67
4.8,72
4.8,74
4.8,74
4.8,78
4.8,84
4.8,86
4.81,86
4.81,85
4.81,90
4.81,94
4.81,98
4.81,101
4.82,102
4.82,104
4.82,103
4.82,101
4.82,102
4.82,101
4.83,100
4.83,99
4.83,99
4.83,99
4.83,100
4.83,103
4.84,101
4.84,98
4.84,95
4.84,92
4.84,90
4.84,90
4.84,89
4.85,88
4.85,87
4.85,86
4.85,83
4.85,82
4.85,80
4.86,77
4.86,75
4.86,73
4.86,72
4.86,70
4.86,69
4.86,67
4.87,66
4.87,65
4.87,63
4.87,62
4.87,60
4.87,59
4.88,57
4.88,56
4.88,56
4.88,62
4.88,70
4.88,74
4.89,74
4.89,73
4.89,76
4.89,84
4.89,92
4.89,96
4.89,96
4.9,94
4.9,96
4.9,101
4.9,103
4.9,101
4.9,100
4.91,100
4.91,103
4.91,106
4.91,107
4.91,105
4.91,109
4.92,114
4.92,115
4.92,123
4.92,129
4.92,134
4.92,138
4.92,138
4.93,136
4.93,140
4.93,144
4.93,148
4.93,149
4.93,147
4.94,145
4.94,142
4.94,137
4.94,133
4.94,129
4.94,125
4.95,122
4.95,119
4.95,116
4.95,112
4.95,110
4.95,106
4.96,103
4.96,101
4.96,98
4.96,96
4.96,94
4.96,92
4.96,91
4.97,88
4.97,86
4.97,83
4.97,83
4.97,84
4.97,83
4.98,81
4.98,81
4.98,84
4.98,88
4.98,91
4.98,94
4.98,94
4.99,91
4.99,93
4.99,99
4.99,106
4.99,111
4.99,112
5.0,109
5.0,106
5.0,103
5.0,100
5.0,100
5.0,110
5.01,115
5.01,114
5.01,112
5.01,112
5.01,116
5.01,123
5.01,128
5.02,130
5.02,128
5.02,125
5.02,123
5.02,122
5.02,120
5.03,118
5.03,116
5.03,114
5.03,112
5.03,111
5.03,109
5.03,107
5.04,105
5.04,102
5.04,98
5.04,96
5.04,94
5.05,92
5.05,89
5.05,87
5.05,84
5.05,82
5.05,82
5.05,82
5.05,81
5.06,80
5.06,78
5.06,76
5.06,74
5.06,73
5.06,72
5.07,74
5.07,73
5.07,73
5.07,73
5.07,72
5.07,74
5.07,80
5.08,83
5.08,83
5.08,81
5.08,84
5.08,91
5.09,96
5.09,101
5.09,106
5.09,106
5.09,104
5.09,102
5.09,101
5.1,106
5.1,115
5.1,118
5.1,118
5.1,117
5.1,114
5.11,116
5.11,120
5.11,125
5.11,126
5.11,127
5.11,125
5.11,122
5.12,119
5.12,115
5.12,114
5.12,111
5.12,109
5.13,107
5.13,104
5.13,101
5.13,98
5.13,96
5.13,93
5.13,90
5.14,88
5.14,86
5.14,86
5.14,87
5.14,85
5.14,85
5.15,88
5.15,95
5.15,101
5.15,100
5.15,99
5.15,102
5.15,109
5.16,113
5.16,117
5.16,117
5.16,114
5.16,112
5.16,110
5.17,108
5.17,104
5.17,104
5.17,112
5.17,117
5.17,116
5.18,113
5.18,111
5.18,110
5.18,113
5.18,117
5.18,122
5.19,124
5.19,122
5.19,119
5.19,117
5.19,113
5.19,111
5.19,111
5.2,110
5.2,109
5.2,107
5.2,106
5.2,104
5.2,101
5.21,98
5.21,96
5.21,93
5.21,91
5.21,89
5.21,86
5.22,85
5.22,83
5.22,82
5.22,83
5.22,86
5.22,86
5.22,84
5.23,82
5.23,81
5.23,79
5.23,78
5.23,76
5.23,75
5.24,74
5.24,73
5.24,74
5.24,73
5.24,73
5.24,76
5.24,80
5.25,85
5.25,90
5.25,90
5.25,91
5.25,97
5.25,107
5.26,117
5.26,123
5.26,125
5.26,123
5.26,119
5.26,116
5.26,113
5.27,111
5.27,109
5.27,108
5.27,106
5.27,104
5.27,103
5.28,104
5.28,104
5.28,101
5.28,98
5.28,96
5.28,96
5.28,95
5.29,93
5.29,90
5.29,88
5.29,89
5.29,90
5.3,90
5.3,88
5.3,88
5.3,86
5.3,84
5.3,83
5.3,85
5.3,89
5.31,89
5.31,87
5.31,87
5.31,87
5.31,90
5.32,99
5.32,106
5.32,109
5.32,111
5.32,111
5.32,109
5.32,115
5.32,126
5.33,135
5.33,142
5.33,147
5.33,149
5.33,147
5.34,147
5.34,146
5.34,145
5.34,145
5.34,142
5.34,143
5.34,146
5.35,148
5.35,149
5.35,148
5.35,143
5.35,138
5.36,137
5.36,135
5.36,132
5.36,132
5.36,132
5.36,131
5.36,131
5.37,133
5.37,136
5.37,138
5.37,134
5.37,131
5.37,129
5.38,129
5.38,134
5.38,144
5.38,155
5.38,161
5.38,166
5.39,164
5.39,161
5.39,166
5.39,179
5.39,183
5.39,191
5.4,203
5.4,210
5.4,235
5.4,238
5.4,235
5.4,238
5.4,247
5.41,262
5.41,277
5.41,288
5.41,287
5.41,278
5.41,271
5.42,266
5.42,261
5.42,256
5.42,251
5.42,244
5.42,238
5.43,233
5.43,231
5.43,229
5.43,227
5.43,227
5.43,227
5.44,224
5.44,220
5.44,214
5.44,211
5.44,212
5.44,212
5.44,209
5.45,207
5.45,202
5.45,196
5.45,189
5.45,184
