Time_s,ADC
0.0,36
0.0,37
0.0,37
0.0,36
0.01,35
0.01,36
0.01,34
0.01,35
0.01,35
0.01,36
0.01,34
0.02,35
0.02,35
0.02,35
0.02,35
0.02,35
0.02,35
0.03,34
0.03,34
0.03,35
0.03,35
0.03,35
0.03,34
0.03,35
0.04,35
0.04,35
0.04,35
0.04,35
0.04,35
0.04,35
0.05,35
0.05,35
0.05,35
0.05,36
0.05,37
0.05,36
0.05,36
0.06,35
0.06,35
0.06,34
0.06,34
0.06,34
0.06,33
0.07,33
0.07,34
0.07,34
0.07,34
0.07,33
0.07,33
0.07,33
0.08,33
0.08,34
0.08,35
0.08,34
0.08,34
0.08,35
0.09,35
0.09,35
0.09,35
0.09,35
0.09,34
0.09,34
0.1,34
0.1,35
0.1,34
0.1,34
0.1,34
0.1,34
0.1,35
0.11,35
0.11,35
0.11,34
0.11,34
0.11,33
0.11,33
0.11,32
0.12,32
0.12,31
0.12,31
0.12,30
0.12,30
0.12,29
0.12,29
0.13,29
0.13,29
0.13,29
0.13,28
0.13,29
0.13,32
0.14,34
0.14,34
0.14,35
0.14,38
0.14,37
0.14,37
0.14,36
0.15,36
0.15,35
0.15,35
0.15,35
0.15,34
0.15,34
0.16,33
0.16,34
0.16,33
0.16,33
0.16,33
0.16,33
0.17,32
0.17,32
0.17,33
0.17,34
0.17,34
0.17,34
0.17,33
0.18,33
0.18,32
0.18,33
0.18,32
0.18,32
0.18,33
0.19,32
0.19,32
0.19,32
0.19,32
0.19,31
0.19,31
0.19,32
0.2,32
0.2,32
0.2,32
0.2,32
0.2,32
0.2,31
0.2,33
0.21,32
0.21,32
0.21,32
0.21,34
0.21,36
0.22,36
0.22,35
0.22,36
0.22,35
0.22,36
0.22,36
0.22,36
0.22,36
0.23,35
0.23,37
0.23,38
0.23,37
0.23,39
0.23,39
0.24,41
0.24,43
0.24,44
0.24,45
0.24,44
0.24,44
0.25,44
0.25,43
0.25,42
0.25,45
0.25,49
0.25,52
0.25,51
0.26,51
0.26,50
0.26,49
0.26,50
0.26,52
0.26,54
0.26,55
0.27,53
0.27,53
0.27,53
0.27,54
0.27,53
0.27,56
0.28,57
0.28,56
0.28,60
0.28,64
0.28,64
0.28,62
0.28,62
0.29,63
0.29,63
0.29,61
0.29,60
0.29,58
0.29,57
0.3,56
0.3,55
0.3,54
0.3,54
0.3,54
0.3,54
0.31,53
0.31,52
0.31,51
0.31,49
0.31,50
0.31,50
0.31,50
0.32,49
0.32,48
0.32,49
0.32,50
0.32,49
0.32,48
0.32,47
0.33,47
0.33,47
0.33,47
0.33,46
0.33,45
0.33,44
0.34,43
0.34,43
0.34,44
0.34,44
0.34,43
0.34,42
0.35,42
0.35,43
0.35,42
0.35,41
0.35,40
0.35,39
0.35,38
0.36,37
0.36,37
0.36,36
0.36,35
0.36,34
0.36,34
0.37,33
0.37,36
0.37,38
0.37,38
0.37,37
0.37,38
0.37,38
0.38,38
0.38,37
0.38,38
0.38,38
0.38,37
0.38,38
0.39,38
0.39,39
0.39,39
0.39,38
0.39,37
0.39,36
0.4,36
0.4,37
0.4,36
0.4,35
0.4,36
0.4,35
0.4,36
0.41,36
0.41,35
0.41,35
0.41,34
0.41,34
0.41,35
0.41,35
0.42,35
0.42,35
0.42,34
0.42,34
0.42,34
0.42,35
0.43,34
0.43,35
0.43,37
0.43,38
0.43,38
0.43,38
0.44,38
0.44,39
0.44,40
0.44,40
0.44,39
0.44,38
0.44,37
0.45,37
0.45,37
0.45,37
0.45,36
0.45,36
0.45,36
0.45,35
0.46,37
0.46,36
0.46,35
0.46,35
0.46,34
0.46,33
0.46,34
0.47,36
0.47,36
0.47,36
0.47,35
0.47,35
0.47,34
0.48,33
0.48,33
0.48,33
0.48,32
0.48,32
0.48,31
0.49,31
0.49,31
0.49,31
0.49,31
0.49,31
0.49,31
0.5,32
0.5,34
0.5,33
0.5,33
0.5,34
0.5,34
0.5,34
0.51,34
0.51,33
0.51,33
0.51,32
0.51,33
0.51,33
0.52,32
0.52,33
0.52,34
0.52,34
0.52,34
0.52,34
0.52,34
0.53,33
0.53,33
0.53,35
0.53,37
0.53,37
0.53,36
0.54,36
0.54,36
0.54,37
0.54,36
0.54,35
0.54,35
0.54,35
0.55,34
0.55,34
0.55,35
0.55,35
0.55,34
0.55,33
0.56,33
0.56,32
0.56,32
0.56,32
0.56,31
0.56,31
0.56,31
0.57,31
0.57,32
0.57,31
0.57,31
0.57,31
0.57,31
0.57,30
0.58,30
0.58,32
0.58,33
0.58,33
0.58,33
0.58,34
0.59,35
0.59,37
0.59,36
0.59,37
0.59,37
0.59,36
0.6,36
0.6,34
0.6,34
0.6,33
0.6,33
0.6,32
0.61,32
0.61,32
0.61,32
0.61,31
0.61,32
0.61,32
0.61,33
0.62,34
0.62,33
0.62,33
0.62,33
0.62,33
0.62,33
0.63,32
0.63,32
0.63,32
0.63,33
0.63,33
0.63,33
0.63,34
0.63,35
0.64,35
0.64,35
0.64,34
0.64,33
0.64,33
0.65,33
0.65,34
0.65,35
0.65,37
0.65,39
0.65,38
0.65,37
0.66,36
0.66,37
0.66,36
0.66,36
0.66,36
0.66,37
0.67,37
0.67,36
0.67,37
0.67,38
0.67,40
0.67,39
0.67,39
0.68,39
0.68,38
0.68,38
0.68,38
0.68,38
0.68,38
0.69,39
0.69,41
0.69,41
0.69,41
0.69,44
0.69,46
0.69,45
0.7,45
0.7,44
0.7,43
0.7,42
0.7,41
0.7,41
0.7,41
0.71,40
0.71,40
0.71,40
0.71,39
0.71,40
0.71,39
0.71,40
0.72,43
0.72,44
0.72,42
0.72,42
0.72,42
0.72,42
0.73,42
0.73,41
0.73,40
0.73,39
0.73,40
0.74,41
0.74,41
0.74,41
0.74,40
0.74,40
0.74,39
0.74,39
0.75,39
0.75,39
0.75,38
0.75,38
0.75,39
0.75,39
0.75,38
0.76,37
0.76,37
0.76,36
0.76,36
0.76,35
0.76,36
0.76,35
0.77,35
0.77,36
0.77,36
0.77,37
0.77,36
0.77,35
0.78,35
0.78,35
0.78,34
0.78,35
0.78,37
0.78,37
0.79,38
0.79,41
0.79,43
0.79,44
0.79,44
0.79,43
0.79,42
0.8,41
0.8,40
0.8,40
0.8,40
0.8,40
0.8,39
0.81,39
0.81,38
0.81,38
0.81,37
0.81,37
0.81,39
0.81,39
0.82,38
0.82,38
0.82,37
0.82,37
0.82,37
0.82,37
0.83,36
0.83,35
0.83,35
0.83,35
0.83,35
0.83,34
0.83,35
0.84,34
0.84,35
0.84,34
0.84,34
0.84,33
0.84,33
0.85,33
0.85,33
0.85,32
0.85,32
0.85,33
0.85,33
0.86,33
0.86,33
0.86,32
0.86,32
0.86,31
0.86,32
0.86,33
0.87,32
0.87,32
0.87,34
0.87,35
0.87,38
0.87,42
0.88,42
0.88,46
0.88,54
0.88,63
0.88,68
0.88,67
0.88,67
0.88,68
0.89,68
0.89,70
0.89,69
0.89,68
0.89,66
0.89,64
0.9,64
0.9,63
0.9,62
0.9,60
0.9,60
0.9,62
0.91,62
0.91,60
0.91,58
0.91,57
0.91,57
0.91,57
0.91,56
0.92,55
0.92,55
0.92,57
0.92,57
0.92,56
0.92,55
0.93,54
0.93,54
0.93,57
0.93,59
0.93,58
0.93,59
0.93,63
0.94,69
0.94,72
0.94,72
0.94,75
0.94,79
0.95,80
0.95,82
0.95,81
0.95,82
0.95,85
0.95,84
0.95,82
0.95,79
0.96,77
0.96,75
0.96,74
0.96,72
0.96,71
0.96,69
0.97,67
0.97,65
0.97,64
0.97,62
0.97,61
0.97,61
0.98,60
0.98,59
0.98,58
0.98,57
0.98,56
0.98,56
0.98,60
0.99,61
0.99,60
0.99,58
0.99,58
0.99,57
0.99,56
1.0,55
1.0,54
1.0,54
1.0,55
1.0,55
1.0,55
1.0,54
1.01,60
1.01,74
1.01,80
1.01,81
1.01,91
1.01,104
1.01,108
1.02,106
1.02,105
1.02,104
1.02,105
1.02,103
1.02,102
1.03,102
1.03,102
1.03,101
1.03,98
1.03,96
1.03,94
1.04,92
1.04,89
1.04,90
1.04,96
1.04,96
1.04,97
1.04,103
1.05,106
1.05,103
1.05,105
1.05,108
1.05,113
1.05,117
1.06,115
1.06,114
1.06,112
1.06,109
1.06,108
1.06,108
1.07,116
1.07,117
1.07,123
1.07,136
1.07,141
1.07,140
1.08,147
1.08,153
1.08,151
1.08,153
1.08,156
1.08,156
1.09,152
1.09,147
1.09,145
1.09,144
1.09,145
1.09,147
1.09,145
1.1,143
1.1,140
1.1,137
1.1,142
1.1,144
1.1,143
1.11,141
1.11,145
1.11,146
1.11,142
1.11,138
1.11,136
1.12,133
1.12,129
1.12,128
1.12,128
1.12,127
1.12,124
1.12,121
1.13,119
1.13,119
1.13,118
1.13,116
1.13,117
1.13,122
1.14,125
1.14,124
1.14,123
1.14,119
1.14,116
1.14,113
1.14,111
1.15,110
1.15,107
1.15,104
1.15,101
1.15,99
1.16,98
1.16,96
1.16,93
1.16,90
1.16,87
1.16,87
1.16,84
1.17,82
1.17,82
1.17,82
1.17,83
1.17,91
1.17,100
1.17,102
1.18,102
1.18,101
1.18,100
1.18,105
1.18,113
1.18,117
1.19,117
1.19,115
1.19,112
1.19,110
1.19,109
1.2,107
1.2,105
1.2,102
1.2,99
1.2,97
1.2,94
1.2,92
1.21,89
1.21,87
1.21,85
1.21,84
1.21,82
1.21,82
1.22,81
1.22,79
1.22,77
1.22,76
1.22,76
1.22,75
1.22,73
1.23,70
1.23,69
1.23,71
1.23,73
1.23,73
1.23,73
1.23,72
1.24,72
1.24,72
1.24,70
1.24,69
1.24,70
1.25,71
1.25,71
1.25,71
1.25,70
1.25,69
1.25,70
1.25,77
1.25,81
1.26,83
1.26,81
1.26,83
1.26,84
1.26,83
1.26,83
1.27,83
1.27,81
1.27,80
1.27,78
1.27,79
1.27,78
1.27,77
1.28,75
1.28,74
1.28,72
1.28,72
1.28,79
1.28,86
1.29,94
1.29,94
1.29,97
1.29,104
1.29,109
1.29,111
1.3,108
1.3,107
1.3,106
1.3,104
1.3,102
1.3,99
1.3,96
1.31,94
1.31,93
1.31,92
1.31,93
1.31,97
1.31,105
1.32,109
1.32,107
1.32,112
1.32,118
1.32,123
1.32,122
1.33,118
1.33,117
1.33,114
1.33,113
1.33,110
1.33,108
1.34,106
1.34,103
1.34,101
1.34,104
1.34,109
1.34,109
1.35,107
1.35,104
1.35,106
1.35,106
1.35,107
1.35,115
1.35,124
1.36,128
1.36,126
1.36,122
1.36,118
1.36,117
1.36,114
1.37,112
1.37,115
1.37,123
1.37,127
1.37,126
1.37,129
1.37,133
1.38,134
1.38,145
1.38,155
1.38,161
1.38,165
1.38,163
1.39,158
1.39,155
1.39,154
1.39,154
1.39,154
1.39,156
1.4,156
1.4,151
1.4,157
1.4,170
1.4,186
1.4,201
1.4,224
1.41,267
1.41,271
1.41,299
1.41,339
1.41,383
1.41,415
1.42,426
1.42,419
1.42,411
1.42,422
1.42,448
1.42,502
1.43,611
1.43,702
1.43,751
1.43,746
1.43,791
1.43,868
1.44,933
1.44,934
1.44,934
1.44,934
1.44,934
1.44,934
1.45,934
1.45,934
1.45,934
1.45,934
1.45,934
1.45,934
1.46,934
1.46,934
1.46,934
1.46,934
1.46,934
1.46,934
1.47,934
1.47,934
1.47,935
1.47,935
1.47,934
1.47,935
1.47,935
1.48,934
1.48,935
1.48,934
1.48,934
1.48,935
1.48,934
1.49,934
1.49,934
1.49,934
1.49,935
1.49,934
1.49,934
1.5,934
1.5,934
1.5,934
1.5,934
1.5,934
1.5,934
1.5,934
1.51,934
1.51,934
1.51,934
1.51,934
1.51,934
1.51,934
1.52,934
1.52,934
1.52,934
1.52,934
1.52,934
1.52,934
1.52,934
1.53,934
1.53,934
1.53,934
1.53,934
1.53,934
1.54,934
1.54,934
1.54,934
1.54,934
1.54,934
1.54,935
1.54,934
1.55,934
1.55,935
1.55,934
1.55,935
1.55,934
1.55,934
1.56,934
1.56,934
1.56,934
1.56,934
1.56,934
1.56,934
1.57,934
1.57,935
1.57,935
1.57,934
1.57,934
1.57,934
1.58,935
1.58,934
1.58,934
1.58,934
1.58,934
1.58,934
1.59,934
1.59,934
1.59,934
1.59,935
1.59,934
1.59,934
1.6,934
1.6,934
1.6,934
1.6,934
1.6,934
1.6,934
1.6,934
1.61,934
1.61,934
1.61,934
1.61,934
1.61,934
1.61,934
1.61,935
1.62,934
1.62,934
1.62,934
1.62,934
1.62,935
1.63,935
1.63,935
1.63,934
1.63,934
1.63,934
1.63,935
1.63,935
1.64,934
1.64,934
1.64,934
1.64,935
1.64,934
1.64,935
1.65,934
1.65,934
1.65,934
1.65,934
1.65,935
1.65,934
1.65,934
1.66,934
1.66,934
1.66,934
1.66,934
1.66,934
1.66,934
1.67,935
1.67,934
1.67,934
1.67,934
1.67,934
1.67,935
1.68,934
1.68,935
1.68,934
1.68,934
1.68,934
1.68,934
1.69,934
1.69,934
1.69,935
1.69,935
1.69,935
1.69,934
1.7,934
1.7,935
1.7,934
1.7,934
1.7,934
1.7,934
1.7,935
1.71,934
1.71,934
1.71,935
1.71,934
1.71,935
1.72,935
1.72,934
1.72,935
1.72,934
1.72,934
1.72,934
1.72,934
1.73,935
1.73,935
1.73,935
1.73,934
1.73,934
1.73,934
1.74,934
1.74,935
1.74,934
1.74,934
1.74,934
1.74,934
1.75,934
1.75,935
1.75,935
1.75,935
1.75,935
1.75,934
1.75,934
1.76,934
1.76,935
1.76,935
1.76,935
1.76,934
1.76,934
1.77,935
1.77,934
1.77,934
1.77,935
1.77,934
1.77,934
1.77,934
1.78,935
1.78,934
1.78,934
1.78,935
1.78,934
1.78,934
1.79,935
1.79,934
1.79,934
1.79,934
1.79,934
1.79,934
1.8,935
1.8,934
1.8,934
1.8,934
1.8,934
1.8,934
1.81,934
1.81,935
1.81,934
1.81,934
1.81,934
1.81,934
1.82,934
1.82,934
1.82,934
1.82,934
1.82,934
1.82,934
1.83,934
1.83,934
1.83,934
1.83,934
1.83,934
1.83,934
1.84,934
1.84,934
1.84,934
1.84,934
1.84,933
1.84,933
1.84,933
1.85,923
1.85,900
1.85,924
1.85,933
1.85,933
1.85,933
1.86,934
1.86,933
1.86,934
1.86,933
1.86,920
1.86,889
1.86,859
1.87,831
1.87,805
1.87,787
1.87,772
1.87,768
1.87,759
1.88,739
1.88,718
1.88,696
1.88,681
1.88,677
1.88,670
1.89,649
1.89,627
1.89,606
1.89,585
1.89,567
1.89,549
1.9,532
1.9,517
1.9,501
1.9,483
1.9,468
1.9,455
1.9,439
1.91,426
1.91,416
1.91,405
1.91,392
1.91,378
1.91,365
1.92,355
1.92,346
1.92,336
1.92,324
1.92,314
1.92,304
1.93,295
1.93,288
1.93,280
1.93,272
1.93,264
1.93,257
1.93,262
1.94,286
1.94,300
1.94,294
1.94,303
1.94,328
1.95,332
1.95,321
1.95,311
1.95,306
1.95,297
1.95,291
1.95,297
1.96,307
1.96,319
1.96,352
1.96,374
1.96,374
1.96,383
1.97,424
1.97,441
1.97,438
1.97,429
1.97,423
1.97,436
1.98,439
1.98,428
1.98,417
1.98,405
1.98,391
1.98,383
1.98,391
1.99,394
1.99,388
1.99,376
1.99,371
1.99,377
1.99,401
2.0,429
2.0,437
2.0,435
2.0,463
2.0,486
2.0,485
2.01,470
2.01,458
2.01,452
2.01,443
2.01,432
2.01,417
2.02,406
2.02,401
2.02,415
2.02,412
2.02,406
2.02,416
2.03,413
2.03,405
2.03,404
2.03,399
2.03,388
2.03,387
2.03,387
2.04,376
2.04,368
2.04,364
2.04,359
2.04,349
2.04,342
2.05,339
2.05,331
2.05,329
2.05,331
2.05,326
2.05,319
2.06,324
2.06,329
2.06,321
2.06,311
2.06,301
2.06,293
2.07,285
2.07,276
2.07,266
2.07,257
2.07,249
2.07,241
2.07,233
2.08,226
2.08,219
2.08,212
2.08,207
2.08,200
2.08,194
2.09,188
2.09,182
2.09,178
2.09,173
2.09,167
2.09,162
2.1,160
2.1,161
2.1,160
2.1,156
2.1,154
2.1,153
2.11,150
2.11,146
2.11,144
2.11,145
2.11,163
2.11,190
2.11,207
2.12,208
2.12,227
2.12,249
2.12,255
2.12,256
2.12,251
2.13,244
2.13,238
2.13,230
2.13,225
2.13,219
2.13,213
2.14,206
2.14,199
2.14,192
2.14,186
2.14,180
2.14,175
2.15,169
2.15,166
2.15,162
2.15,156
2.15,152
2.15,155
2.15,157
2.16,153
2.16,154
2.16,156
2.16,158
2.16,158
2.16,153
2.17,148
2.17,143
2.17,140
2.17,135
2.17,131
2.17,127
2.18,125
2.18,122
2.18,119
2.18,116
2.18,114
2.18,111
2.19,108
2.19,105
2.19,102
2.19,100
2.19,97
2.19,94
2.19,91
2.2,90
2.2,89
2.2,86
2.2,84
2.2,82
2.2,80
2.21,78
2.21,77
2.21,75
2.21,74
2.21,72
2.21,72
2.21,70
2.22,68
2.22,68
2.22,67
2.22,66
2.22,64
2.22,63
2.23,61
2.23,60
2.23,59
2.23,59
2.23,58
2.23,57
2.23,55
2.24,55
2.24,54
2.24,54
2.24,53
2.24,52
2.24,51
2.25,50
2.25,50
2.25,49
2.25,48
2.25,49
2.25,48
2.25,48
2.26,48
2.26,47
2.26,46
2.26,45
2.26,45
2.26,45
2.27,44
2.27,43
2.27,44
2.27,43
2.27,44
2.27,44
2.28,43
2.28,42
2.28,41
2.28,41
2.28,41
2.28,41
2.28,40
2.29,41
2.29,41
2.29,42
2.29,41
2.29,41
2.29,40
2.29,40
2.3,41
2.3,42
2.3,42
2.3,41
2.3,40
2.31,40
2.31,40
2.31,39
2.31,39
2.31,38
2.31,37
2.31,38
2.32,38
2.32,37
2.32,37
2.32,37
2.32,36
2.32,37
2.32,36
2.33,36
2.33,35
2.33,34
2.33,35
2.33,34
2.33,34
2.34,35
2.34,36
2.34,36
2.34,37
2.34,36
2.34,35
2.34,34
2.35,34
2.35,34
2.35,33
2.35,33
2.35,34
2.35,34
2.36,35
2.36,34
2.36,34
2.36,34
2.36,33
2.36,33
2.37,33
2.37,33
2.37,33
2.37,34
2.37,34
2.37,34
2.37,34
2.38,34
2.38,33
2.38,32
2.38,33
2.38,33
2.38,33
2.38,32
2.39,33
2.39,33
2.39,34
2.39,33
2.39,33
2.39,32
2.4,32
2.4,32
2.4,32
2.4,32
2.4,32
2.4,32
2.41,32
2.41,33
2.41,32
2.41,32
2.41,31
2.41,31
2.41,31
2.42,31
2.42,30
2.42,32
2.42,32
2.42,32
2.42,32
2.42,32
2.43,32
2.43,32
2.43,32
2.43,33
2.43,32
2.44,32
2.44,33
2.44,33
2.44,34
2.44,33
2.44,34
2.44,33
2.45,34
2.45,35
2.45,35
2.45,34
2.45,35
2.45,36
2.45,36
2.46,35
2.46,35
2.46,35
2.46,35
2.46,34
2.46,34
2.47,34
2.47,33
2.47,34
2.47,35
2.47,35
2.47,36
2.48,35
2.48,35
2.48,34
2.48,34
2.48,35
2.48,35
2.48,34
2.49,35
2.49,35
2.49,36
2.49,36
2.49,36
2.49,35
2.49,35
2.5,35
2.5,35
2.5,34
2.5,34
2.5,34
2.5,34
2.51,35
2.51,34
2.51,34
2.51,34
2.51,33
2.51,33
2.51,34
2.52,33
2.52,33
2.52,33
2.52,32
2.52,33
2.52,32
2.53,32
2.53,32
2.53,31
2.53,32
2.53,32
2.53,32
2.54,31
2.54,31
2.54,30
2.54,30
2.54,30
2.54,30
2.54,30
2.55,29
2.55,29
2.55,28
2.55,28
2.55,29
2.55,29
2.55,29
2.56,28
2.56,28
2.56,28
2.56,28
2.56,28
2.56,29
2.57,29
2.57,29
2.57,29
2.57,30
2.57,31
2.57,31
2.58,31
2.58,30
2.58,30
2.58,30
2.58,30
2.58,30
2.58,30
2.59,30
2.59,30
2.59,30
2.59,30
2.59,30
2.59,30
2.6,29
2.6,30
2.6,30
2.6,29
2.6,29
2.6,30
2.61,30
2.61,30
2.61,30
2.61,30
2.61,29
2.61,29
2.61,30
2.62,30
2.62,30
2.62,29
2.62,30
2.62,30
2.62,29
2.62,31
2.63,34
2.63,34
2.63,34
2.63,34
2.63,34
2.63,35
2.64,36
2.64,39
2.64,40
2.64,40
2.64,39
2.64,39
2.64,39
2.65,39
2.65,40
2.65,39
2.65,38
2.65,38
2.65,38
2.66,38
2.66,37
2.66,37
2.66,37
2.66,36
2.66,36
2.67,37
2.67,36
2.67,37
2.67,37
2.67,36
2.67,37
2.67,36
2.68,36
2.68,35
2.68,34
2.68,35
2.68,34
2.68,34
2.68,34
2.69,34
2.69,34
2.69,35
2.69,34
2.69,34
2.69,33
2.7,33
2.7,34
2.7,34
2.7,33
2.7,33
2.7,34
2.71,34
2.71,34
2.71,33
2.71,33
2.71,32
2.71,32
2.71,33
2.72,33
2.72,32
2.72,32
2.72,32
2.72,32
2.72,33
2.73,32
2.73,31
2.73,31
2.73,31
2.73,31
2.73,30
2.74,31
2.74,32
2.74,32
2.74,32
2.74,32
2.74,31
2.74,31
2.75,30
2.75,30
2.75,29
2.75,29
2.75,29
2.75,28
2.75,27
2.76,27
2.76,27
2.76,27
2.76,27
2.76,27
2.76,28
2.77,28
2.77,28
2.77,28
2.77,29
2.77,30
2.77,30
2.78,30
2.78,30
2.78,29
2.78,29
2.78,29
2.78,29
2.78,29
2.79,30
2.79,30
2.79,31
2.79,31
2.79,31
2.79,30
2.8,30
2.8,30
2.8,30
2.8,30
2.8,30
2.8,30
2.8,30
2.81,31
2.81,31
2.81,31
2.81,30
2.81,29
2.81,30
2.81,30
2.82,30
2.82,30
2.82,30
2.82,30
2.82,30
2.82,29
2.83,31
2.83,31
2.83,32
2.83,33
2.83,34
2.83,33
2.84,33
2.84,33
2.84,34
2.84,34
2.84,34
2.84,34
2.84,33
2.85,32
2.85,33
2.85,33
2.85,32
2.85,33
2.85,33
2.86,33
2.86,33
2.86,33
2.86,32
2.86,32
2.86,32
2.87,32
2.87,32
2.87,31
2.87,33
2.87,33
2.87,33
2.87,33
2.88,33
2.88,33
2.88,32
2.88,32
2.88,32
2.88,32
2.88,32
2.89,33
2.89,34
2.89,34
2.89,34
2.89,33
2.89,33
2.9,33
2.9,32
2.9,33
2.9,32
2.9,32
2.9,32
2.91,32
2.91,33
2.91,33
2.91,33
2.91,32
2.91,32
2.91,33
2.92,33
2.92,32
2.92,33
2.92,33
2.92,33
2.92,32
2.93,32
2.93,32
2.93,32
2.93,32
2.93,33
2.93,33
2.93,33
2.94,33
2.94,33
2.94,32
2.94,33
2.94,33
2.94,32
2.95,32
2.95,32
2.95,33
2.95,33
2.95,33
2.95,32
2.95,33
2.96,38
2.96,40
2.96,39
2.96,39
2.96,38
2.96,40
2.97,44
2.97,45
2.97,45
2.97,45
2.97,54
2.97,65
2.97,66
2.98,74
2.98,85
2.98,90
2.98,92
2.98,92
2.98,93
2.98,92
2.99,90
2.99,91
2.99,93
2.99,93
2.99,95
3.0,97
3.0,98
3.0,96
3.0,95
3.0,95
3.0,94
3.0,92
3.01,90
3.01,87
3.01,86
3.01,88
3.01,88
3.01,87
3.01,90
3.02,91
3.02,92
3.02,91
3.02,89
3.02,88
3.02,87
3.03,85
3.03,83
3.03,81
3.03,79
3.03,77
3.03,78
3.04,76
3.04,74
3.04,74
3.04,77
3.04,79
3.04,79
3.04,84
3.05,92
3.05,97
3.05,95
3.05,98
3.05,99
3.05,102
3.05,102
3.06,100
3.06,97
3.06,95
3.06,93
3.06,96
3.06,95
3.07,94
3.07,95
3.07,95
3.07,95
3.07,93
3.07,91
3.08,88
3.08,86
3.08,85
3.08,83
3.08,81
3.08,79
3.08,78
3.09,75
3.09,74
3.09,72
3.09,71
3.09,72
3.09,72
3.1,70
3.1,68
3.1,69
3.1,72
3.1,77
3.1,80
3.1,79
3.11,79
3.11,85
3.11,92
3.11,93
3.11,91
3.11,89
3.12,88
3.12,87
3.12,89
3.12,95
3.12,96
3.12,93
3.12,96
3.13,99
3.13,99
3.13,97
3.13,94
3.13,92
3.13,90
3.14,91
3.14,95
3.14,96
3.14,95
3.14,93
3.14,93
3.14,91
3.15,88
3.15,87
3.15,86
3.15,84
3.15,82
3.15,80
3.16,78
3.16,80
3.16,78
3.16,77
3.16,78
3.16,77
3.17,76
3.17,74
3.17,74
3.17,75
3.17,74
3.17,75
3.17,76
3.18,74
3.18,73
3.18,71
3.18,72
3.18,71
3.18,69
3.18,68
3.19,68
3.19,67
3.19,65
3.19,64
3.19,65
3.19,66
3.2,64
3.2,62
3.2,61
3.2,60
3.2,58
3.2,57
3.21,58
3.21,59
3.21,59
3.21,57
3.21,56
3.21,54
3.21,54
3.22,53
3.22,52
3.22,50
3.22,49
3.22,48
3.22,47
3.23,47
3.23,47
3.23,46
3.23,45
3.23,45
3.23,45
3.23,45
3.24,46
3.24,46
3.24,46
3.24,45
3.24,44
3.24,43
3.25,42
3.25,42
3.25,43
3.25,44
3.25,43
3.25,42
3.25,41
3.26,41
3.26,42
3.26,41
3.26,40
3.26,42
3.26,45
3.27,47
3.27,47
3.27,47
3.27,49
3.27,51
3.27,53
3.27,53
3.28,52
3.28,51
3.28,50
3.28,51
3.28,51
3.28,49
3.29,48
3.29,48
3.29,48
3.29,47
3.29,46
3.29,45
3.3,44
3.3,44
3.3,43
3.3,42
3.3,42
3.3,42
3.3,42
3.31,41
3.31,41
3.31,40
3.31,40
3.31,40
3.31,41
3.31,43
3.32,42
3.32,42
3.32,44
3.32,45
3.32,45
3.32,44
3.33,43
3.33,42
3.33,42
3.33,41
3.33,41
3.33,40
3.34,40
3.34,40
3.34,39
3.34,39
3.34,40
3.34,39
3.34,39
3.35,44
3.35,49
3.35,50
3.35,51
3.35,55
3.35,58
3.36,58
3.36,57
3.36,65
3.36,85
3.36,95
3.36,94
3.36,99
3.37,107
3.37,111
3.37,113
3.37,114
3.37,115
3.37,116
3.38,113
3.38,113
3.38,119
3.38,153
3.38,187
3.38,215
3.39,246
3.39,248
3.39,276
3.39,321
3.39,356
3.39,372
3.4,379
3.4,373
3.4,361
3.4,357
3.4,351
3.4,345
3.4,405
3.41,509
3.41,551
3.41,549
3.41,590
3.41,636
3.41,665
3.42,676
3.42,674
3.42,655
3.42,640
3.42,621
3.42,617
3.43,614
3.43,602
3.43,582
3.43,569
3.43,558
3.43,544
3.44,528
3.44,509
3.44,500
3.44,490
3.44,477
3.44,461
3.44,451
3.45,444
3.45,432
3.45,417
3.45,404
3.45,391
3.45,382
3.46,372
3.46,361
3.46,361
3.46,364
3.46,366
3.46,358
3.47,354
3.47,362
3.47,370
3.47,368
3.47,357
3.47,346
3.48,349
3.48,367
3.48,390
3.48,390
3.48,392
3.48,410
3.48,427
3.49,433
3.49,428
3.49,462
3.49,511
3.49,520
3.49,517
3.5,545
3.5,569
3.5,564
3.5,552
3.5,541
3.5,524
3.51,511
3.51,506
3.51,504
3.51,505
3.51,543
3.51,573
3.52,565
3.52,579
3.52,583
3.52,565
3.52,550
3.52,552
3.52,547
3.53,539
3.53,525
3.53,530
3.53,555
3.53,568
3.53,565
3.54,548
3.54,541
3.54,557
3.54,582
3.54,602
3.54,628
3.55,660
3.55,720
3.55,727
3.55,754
3.55,832
3.55,914
3.56,933
3.56,934
3.56,932
3.56,902
3.56,884
3.56,869
3.56,866
3.57,913
3.57,933
3.57,933
3.57,933
3.57,930
3.57,933
3.58,933
3.58,933
3.58,934
3.58,933
3.58,934
3.58,934
3.59,934
3.59,934
3.59,934
3.59,934
3.59,934
3.59,934
3.6,934
3.6,933
3.6,934
3.6,934
3.6,934
3.6,934
3.6,934
3.61,934
3.61,934
3.61,934
3.61,934
3.61,934
3.61,934
3.62,934
3.62,933
3.62,931
3.62,918
3.62,892
3.62,873
3.63,894
3.63,902
3.63,907
3.63,897
3.63,870
3.63,851
3.64,826
3.64,813
3.64,804
3.64,811
3.64,835
3.64,857
3.64,862
3.65,841
3.65,815
3.65,789
3.65,762
3.65,749
3.65,760
3.66,777
3.66,781
3.66,765
3.66,764
3.66,775
3.66,777
3.67,766
3.67,770
3.67,777
3.67,758
3.67,761
3.67,783
3.68,777
3.68,755
3.68,764
3.68,797
3.68,840
3.68,844
3.68,837
3.69,872
3.69,896
3.69,906
3.69,900
3.69,884
3.69,870
3.7,842
3.7,817
3.7,796
3.7,779
3.7,772
3.7,778
3.71,784
3.71,808
3.71,895
3.71,933
3.71,933
3.71,934
3.72,934
3.72,934
3.72,934
3.72,934
3.72,934
3.72,934
3.73,934
3.73,934
3.73,934
3.73,934
3.73,934
3.73,934
3.73,933
3.74,933
3.74,933
3.74,933
3.74,933
3.74,934
3.74,933
3.75,933
3.75,933
3.75,933
3.75,933
3.75,933
3.75,933
3.76,933
3.76,933
3.76,933
3.76,933
3.76,933
3.76,934
3.77,934
3.77,934
3.77,934
3.77,935
3.77,934
3.77,934
3.77,934
3.78,935
3.78,934
3.78,935
3.78,934
3.78,935
3.78,934
3.79,934
3.79,934
3.79,934
3.79,935
3.79,934
3.79,935
3.79,934
3.8,935
3.8,934
3.8,934
3.8,934
3.8,934
3.81,935
3.81,934
3.81,935
3.81,934
3.81,935
3.81,935
3.81,935
3.82,934
3.82,935
3.82,935
3.82,935
3.82,934
3.82,934
3.83,935
3.83,935
3.83,935
3.83,935
3.83,934
3.83,935
3.83,934
3.84,934
3.84,934
3.84,934
3.84,935
3.84,935
3.85,934
3.85,935
3.85,934
3.85,934
3.85,935
3.85,934
3.85,934
3.86,934
3.86,935
3.86,934
3.86,935
3.86,934
3.86,934
3.87,935
3.87,934
3.87,934
3.87,934
3.87,935
3.87,934
3.88,935
3.88,935
3.88,935
3.88,934
3.88,935
3.88,934
3.89,935
3.89,934
3.89,934
3.89,935
3.89,934
3.89,934
3.89,934
3.9,935
3.9,935
3.9,935
3.9,934
3.9,934
3.9,935
3.91,934
3.91,935
3.91,934
3.91,935
3.91,934
3.91,934
3.92,935
3.92,934
3.92,935
3.92,935
3.92,934
3.92,934
3.92,935
3.93,934
3.93,934
3.93,934
3.93,935
3.93,935
3.93,935
3.94,934
3.94,934
3.94,934
3.94,934
3.94,935
3.94,934
3.95,934
3.95,934
3.95,935
3.95,934
3.95,935
3.95,934
3.96,934
3.96,934
3.96,934
3.96,934
3.96,934
3.96,934
3.96,935
3.97,935
3.97,934
3.97,934
3.97,934
3.97,934
3.97,935
3.98,935
3.98,935
3.98,935
3.98,935
3.98,934
3.98,935
3.98,934
3.99,934
3.99,935
3.99,934
3.99,934
3.99,935
4.0,934
4.0,934
4.0,934
4.0,934
4.0,935
4.0,934
4.0,935
4.01,935
4.01,935
4.01,934
4.01,935
4.01,935
4.01,934
4.02,934
4.02,934
4.02,934
4.02,934
4.02,935
4.02,934
4.03,934
4.03,934
4.03,934
4.03,934
4.03,934
4.03,934
4.03,934
4.04,934
4.04,934
4.04,934
4.04,934
4.04,934
4.04,934
4.05,934
4.05,934
4.05,934
4.05,934
4.05,934
4.05,934
4.06,934
4.06,934
4.06,934
4.06,934
4.06,934
4.06,934
4.07,934
4.07,934
4.07,934
4.07,934
4.07,934
4.07,934
4.07,933
4.08,933
4.08,932
4.08,903
4.08,878
4.08,858
4.08,833
4.09,807
4.09,786
4.09,765
4.09,740
4.09,717
4.09,697
4.1,676
4.1,652
4.1,632
4.1,612
4.1,591
4.1,570
4.11,550
4.11,532
4.11,514
4.11,498
4.11,481
4.11,465
4.11,452
4.12,439
4.12,425
4.12,410
4.12,396
4.12,383
4.12,371
4.13,358
4.13,347
4.13,336
4.13,327
4.13,318
4.13,308
4.14,298
4.14,288
4.14,278
4.14,269
4.14,261
4.14,252
4.15,244
4.15,236
4.15,230
4.15,222
4.15,215
4.15,210
4.16,205
4.16,200
4.16,195
4.16,189
4.16,183
4.16,177
4.16,171
4.17,166
4.17,161
4.17,156
4.17,152
4.17,148
4.17,144
4.18,140
4.18,136
4.18,133
4.18,130
4.18,128
4.18,125
4.19,121
4.19,117
4.19,113
4.19,110
4.19,107
4.19,106
4.2,105
4.2,103
4.2,103
4.2,102
4.2,100
4.2,97
4.2,94
4.21,91
4.21,89
4.21,88
4.21,89
4.21,88
4.21,87
4.22,89
4.22,89
4.22,87
4.22,85
4.22,82
4.22,80
4.23,79
4.23,79
4.23,79
4.23,79
4.23,80
4.23,82
4.23,81
4.24,80
4.24,78
4.24,75
4.24,73
4.24,71
4.24,71
4.25,70
4.25,70
4.25,71
4.25,71
4.25,69
4.25,67
4.25,66
4.26,64
4.26,63
4.26,61
4.26,61
4.26,60
4.26,58
4.26,58
4.27,58
4.27,56
4.27,55
4.27,55
4.27,54
4.27,54
4.28,52
4.28,51
4.28,50
4.28,50
4.28,50
4.28,51
4.28,49
4.29,50
4.29,50
4.29,51
4.29,50
4.29,49
4.29,48
4.3,47
4.3,46
4.3,46
4.3,45
4.3,44
4.3,44
4.3,44
4.31,44
4.31,44
4.31,43
4.31,42
4.31,42
4.32,41
4.32,41
4.32,40
4.32,40
4.32,40
4.32,39
4.32,40
4.32,39
4.33,38
4.33,38
4.33,37
4.33,37
4.33,38
4.33,37
4.34,37
4.34,38
4.34,38
4.34,39
4.34,39
4.34,38
4.34,37
4.35,36
4.35,36
4.35,35
4.35,34
4.35,35
4.36,36
4.36,36
4.36,37
4.36,36
4.36,36
4.36,35
4.36,35
4.36,35
4.37,35
4.37,35
4.37,35
4.37,35
4.37,35
4.37,34
4.38,34
4.38,34
4.38,34
4.38,33
4.38,34
4.38,33
4.39,33
4.39,33
4.39,34
4.39,34
4.39,34
4.39,33
4.4,32
4.4,32
4.4,33
4.4,33
4.4,32
4.4,33
4.4,33
4.41,33
4.41,33
4.41,33
4.41,33
4.41,33
4.41,33
4.42,33
4.42,33
4.42,32
4.42,33
4.42,34
4.42,34
4.42,34
4.43,33
4.43,34
4.43,34
4.43,33
4.43,33
4.43,33
4.43,33
4.44,33
4.44,34
4.44,34
4.44,34
4.44,34
4.44,34
4.45,33
4.45,33
4.45,33
4.45,32
4.45,32
4.45,32
4.46,32
4.46,33
4.46,32
4.46,32
4.46,32
4.46,32
4.46,32
4.47,32
4.47,32
4.47,33
4.47,33
4.47,32
4.47,32
4.48,32
4.48,32
4.48,32
4.48,32
4.48,33
4.48,34
4.49,33
4.49,33
4.49,35
4.49,36
4.49,37
4.49,37
4.49,36
4.5,36
4.5,36
4.5,39
4.5,40
4.5,39
4.5,39
4.5,39
4.51,39
4.51,38
4.51,38
4.51,38
4.51,37
4.51,37
4.51,37
4.52,37
4.52,36
4.52,36
4.52,36
4.52,37
4.53,37
4.53,36
4.53,35
4.53,35
4.53,35
4.53,35
4.53,34
4.54,34
4.54,35
4.54,35
4.54,36
4.54,36
4.54,35
4.55,35
4.55,34
4.55,33
4.55,33
4.55,33
4.55,34
4.55,35
4.55,36
4.56,37
4.56,36
4.56,36
4.56,36
4.56,37
4.56,38
4.57,39
4.57,38
4.57,37
4.57,38
4.57,37
4.57,38
4.58,37
4.58,37
4.58,36
4.58,36
4.58,37
4.58,37
4.59,36
4.59,36
4.59,36
4.59,36
4.59,36
4.59,35
4.59,35
4.6,35
4.6,35
4.6,36
4.6,35
4.6,35
4.6,35
4.61,34
4.61,34
4.61,35
4.61,34
4.61,34
4.61,33
4.61,34
4.62,34
4.62,34
4.62,33
4.62,34
4.62,34
4.62,34
4.63,34
4.63,34
4.63,33
4.63,32
4.63,33
4.63,33
4.63,33
4.64,32
4.64,33
4.64,33
4.64,33
4.64,32
4.64,32
4.65,31
4.65,30
4.65,30
4.65,30
4.65,29
4.65,30
4.66,30
4.66,30
4.66,31
4.66,30
4.66,30
4.66,29
4.66,29
4.67,30
4.67,30
4.67,29
4.67,30
4.67,30
4.67,30
4.68,31
4.68,30
4.68,29
4.68,29
4.68,29
4.68,29
4.68,29
4.69,28
4.69,29
4.69,29
4.69,30
4.69,29
4.69,29
4.7,29
4.7,29
4.7,29
4.7,30
4.7,29
4.7,30
4.7,31
4.71,32
4.71,33
4.71,33
4.71,33
4.71,33
4.71,34
4.72,36
4.72,37
4.72,37
4.72,36
4.72,36
4.72,36
4.72,37
4.73,36
4.73,36
4.73,35
4.73,34
4.73,35
4.73,35
4.74,34
4.74,34
4.74,34
4.74,35
4.74,34
4.74,34
4.75,33
4.75,32
4.75,33
4.75,33
4.75,33
4.75,33
4.75,33
4.76,33
4.76,34
4.76,34
4.76,34
4.76,33
4.76,33
4.76,34
4.77,34
4.77,34
4.77,33
4.77,35
4.77,35
4.77,36
4.78,36
4.78,35
4.78,35
4.78,34
4.78,34
4.78,34
4.78,33
4.79,34
4.79,34
4.79,35
4.79,35
4.79,34
4.79,34
4.8,34
4.8,33
4.8,33
4.8,32
4.8,33
4.8,34
4.8,34
4.81,34
4.81,33
4.81,34
4.81,34
4.81,35
4.81,35
4.82,36
4.82,36
4.82,35
4.82,36
4.82,36
4.82,37
4.82,37
4.83,37
4.83,36
4.83,36
4.83,37
4.83,37
4.84,36
4.84,36
4.84,36
4.84,36
4.84,36
4.84,35
4.84,35
4.84,34
4.85,34
4.85,34
4.85,34
4.85,33
4.85,34
4.85,34
4.86,34
4.86,34
4.86,33
4.86,33
4.86,33
4.86,32
4.87,33
4.87,32
4.87,32
4.87,32
4.87,33
4.87,33
4.88,33
4.88,33
4.88,32
4.88,32
4.88,32
4.88,32
4.88,32
4.89,31
4.89,32
4.89,32
4.89,33
4.89,33
4.89,33
4.89,33
4.9,32
4.9,32
4.9,33
4.9,32
4.9,32
4.9,33
4.91,33
4.91,34
4.91,34
4.91,34
4.91,33
4.91,33
4.92,34
4.92,35
4.92,34
4.92,33
4.92,34
4.92,34
4.92,34
4.93,34
4.93,33
4.93,33
4.93,32
4.93,33
4.93,33
4.94,32
4.94,32
4.94,33
4.94,33
4.94,33
4.94,32
4.94,32
4.95,32
4.95,31
4.95,32
4.95,32
4.95,31
4.95,31
4.96,31
4.96,31
4.96,31
4.96,30
4.96,30
4.96,31
4.96,31
4.97,31
4.97,32
4.97,31
4.97,31
4.97,30
4.97,30
4.98,31
4.98,31
4.98,30
4.98,30
4.98,37
4.98,42
4.98,42
4.99,49
4.99,58
4.99,62
4.99,61
4.99,64
4.99,69
5.0,78
5.0,79
5.0,86
5.0,100
5.0,107
5.0,106
5.01,104
5.01,106
5.01,109
5.01,108
5.01,110
5.01,112
5.01,111
5.02,108
5.02,106
5.02,104
5.02,104
5.02,103
5.02,101
5.03,103
5.03,106
5.03,104
5.03,103
5.03,102
5.03,101
5.03,97
5.04,95
5.04,92
5.04,91
5.04,92
5.04,91
5.05,98
5.05,99
5.05,108
5.05,122
5.05,126
5.05,126
5.05,134
5.05,136
5.06,132
5.06,129
5.06,126
5.06,123
5.06,120
5.07,116
5.07,114
5.07,111
5.07,109
5.07,107
5.07,107
5.07,107
5.08,117
5.08,120
5.08,123
5.08,138
5.08,147
5.08,144
5.09,146
5.09,150
5.09,151
5.09,156
5.09,160
5.09,156
5.09,154
5.1,154
5.1,155
5.1,152
5.1,156
5.1,154
5.11,150
5.11,148
5.11,145
5.11,147
5.11,149
5.11,146
5.11,141
5.12,137
5.12,135
5.12,135
5.12,134
5.12,132
5.12,131
5.13,128
5.13,124
5.13,120
5.13,117
5.13,115
5.13,111
5.14,109
5.14,109
5.14,108
5.14,107
5.14,104
5.14,102
5.15,101
5.15,99
5.15,97
5.15,95
5.15,93
5.15,94
5.15,96
5.16,94
5.16,94
5.16,92
5.16,93
5.16,96
5.16,97
5.17,96
5.17,94
5.17,95
5.17,97
5.17,99
5.17,99
5.18,98
5.18,98
5.18,99
5.18,99
5.18,97
5.18,96
5.18,94
5.19,93
5.19,97
5.19,99
5.19,99
5.19,97
5.19,94
5.19,92
5.2,89
5.2,87
5.2,84
5.2,83
5.2,80
5.2,79
5.21,76
5.21,75
5.21,73
5.21,73
5.21,72
5.21,71
5.22,69
5.22,68
5.22,67
5.22,68
5.22,67
5.22,67
5.22,67
5.23,68
5.23,66
5.23,65
5.23,63
5.23,63
5.23,63
5.23,61
5.24,60
5.24,59
5.24,58
5.24,58
5.24,57
5.24,59
5.25,62
5.25,65
5.25,68
5.25,69
5.25,67
5.25,72
5.26,74
5.26,75
5.26,75
5.26,74
5.26,75
5.26,77
5.26,79
5.27,79
5.27,78
5.27,76
5.27,77
5.27,78
5.27,79
5.28,80
5.28,80
5.28,84
5.28,87
5.28,86
5.28,85
5.28,86
5.28,86
5.29,87
5.29,86
5.29,86
5.29,87
5.29,84
5.3,83
5.3,81
5.3,79
5.3,79
5.3,78
5.3,75
5.3,74
5.31,72
5.31,70
5.31,70
5.31,70
5.31,70
5.31,69
5.32,68
5.32,68
5.32,68
5.32,70
5.32,70
5.32,70
5.32,69
5.33,68
5.33,66
5.33,65
5.33,64
5.33,64
5.33,63
5.34,61
5.34,60
5.34,60
5.34,60
5.34,60
5.34,59
5.34,57
5.35,56
5.35,54
5.35,54
5.35,55
5.35,56
5.35,55
5.36,53
5.36,54
5.36,56
5.36,55
5.36,56
5.36,56
5.36,56
5.37,55
5.37,56
5.37,56
5.37,55
5.37,57
5.37,56
5.38,58
5.38,60
5.38,60
5.38,60
5.38,62
5.38,62
5.39,61
5.39,59
5.39,58
5.39,59
5.39,61
5.39,62
5.39,61
5.4,60
5.4,60
5.4,59
5.4,58
5.4,59
5.4,60
5.41,61
5.41,61
5.41,60
5.41,59
5.41,58
5.41,57
5.41,57
5.42,59
5.42,59
5.42,58
5.42,59
5.42,60
5.42,59
5.43,61
5.43,67
5.43,71
5.43,71
5.43,71
5.43,71
5.43,77
5.44,82
5.44,83
5.44,82
5.44,80
5.44,78
5.44,77
5.45,75
5.45,74
5.45,72
5.45,70
5.45,69
