Time_s,ADC
0.0,16
0.0,15
0.0,16
0.0,15
0.01,15
0.01,16
0.01,16
0.01,15
0.01,15
0.01,15
0.01,15
0.02,15
0.02,15
0.02,15
0.02,15
0.02,16
0.02,16
0.03,16
0.03,16
0.03,16
0.03,15
0.03,16
0.03,16
0.03,15
0.04,15
0.04,15
0.04,15
0.04,15
0.04,15
0.04,15
0.05,15
0.05,15
0.05,15
0.05,15
0.05,15
0.05,15
0.05,15
0.06,15
0.06,15
0.06,15
0.06,15
0.06,15
0.06,15
0.07,15
0.07,15
0.07,15
0.07,15
0.07,15
0.07,15
0.07,15
0.08,15
0.08,15
0.08,15
0.08,15
0.08,15
0.08,15
0.09,15
0.09,15
0.09,15
0.09,15
0.09,15
0.09,15
0.1,15
0.1,15
0.1,15
0.1,15
0.1,15
0.1,15
0.1,15
0.11,15
0.11,15
0.11,15
0.11,15
0.11,15
0.11,15
0.11,15
0.12,15
0.12,15
0.12,15
0.12,15
0.12,15
0.12,15
0.12,15
0.13,15
0.13,15
0.13,15
0.13,15
0.13,15
0.13,15
0.14,15
0.14,15
0.14,15
0.14,15
0.14,15
0.14,15
0.14,15
0.15,15
0.15,15
0.15,15
0.15,15
0.15,15
0.15,15
0.16,15
0.16,15
0.16,15
0.16,15
0.16,15
0.16,15
0.17,15
0.17,15
0.17,15
0.17,15
0.17,15
0.17,15
0.17,15
0.18,15
0.18,15
0.18,15
0.18,15
0.18,15
0.18,15
0.19,15
0.19,15
0.19,15
0.19,15
0.19,15
0.19,15
0.19,15
0.2,15
0.2,15
0.2,15
0.2,15
0.2,15
0.2,15
0.2,15
0.21,15
0.21,15
0.21,15
0.21,15
0.21,15
0.22,15
0.22,15
0.22,15
0.22,15
0.22,15
0.22,15
0.22,15
0.22,15
0.23,15
0.23,15
0.23,15
0.23,15
0.23,15
0.23,15
0.24,15
0.24,15
0.24,15
0.24,15
0.24,15
0.24,15
0.25,15
0.25,15
0.25,15
0.25,14
0.25,15
0.25,15
0.25,15
0.26,15
0.26,15
0.26,15
0.26,15
0.26,15
0.26,15
0.26,15
0.27,15
0.27,15
0.27,15
0.27,15
0.27,15
0.27,15
0.28,15
0.28,15
0.28,15
0.28,15
0.28,15
0.28,15
0.28,15
0.29,15
0.29,15
0.29,15
0.29,15
0.29,15
0.29,15
0.3,15
0.3,15
0.3,15
0.3,15
0.3,15
0.3,15
0.31,15
0.31,15
0.31,15
0.31,15
0.31,15
0.31,15
0.31,15
0.32,15
0.32,15
0.32,15
0.32,15
0.32,15
0.32,15
0.32,15
0.33,15
0.33,15
0.33,15
0.33,15
0.33,15
0.33,15
0.34,15
0.34,15
0.34,15
0.34,16
0.34,16
0.34,16
0.35,16
0.35,15
0.35,15
0.35,15
0.35,15
0.35,15
0.35,15
0.36,15
0.36,15
0.36,15
0.36,15
0.36,15
0.36,16
0.37,15
0.37,15
0.37,15
0.37,15
0.37,15
0.37,15
0.37,16
0.38,16
0.38,16
0.38,15
0.38,16
0.38,15
0.38,15
0.39,15
0.39,15
0.39,15
0.39,15
0.39,15
0.39,15
0.4,15
0.4,15
0.4,15
0.4,15
0.4,15
0.4,15
0.4,15
0.41,15
0.41,15
0.41,15
0.41,15
0.41,15
0.41,15
0.41,15
0.42,15
0.42,15
0.42,15
0.42,15
0.42,15
0.42,15
0.43,15
0.43,15
0.43,15
0.43,15
0.43,15
0.43,15
0.44,15
0.44,15
0.44,15
0.44,15
0.44,15
0.44,15
0.44,15
0.45,15
0.45,15
0.45,15
0.45,15
0.45,15
0.45,15
0.45,15
0.46,15
0.46,15
0.46,15
0.46,15
0.46,15
0.46,15
0.46,15
0.47,15
0.47,15
0.47,15
0.47,15
0.47,15
0.47,15
0.48,15
0.48,15
0.48,15
0.48,15
0.48,15
0.48,15
0.49,15
0.49,15
0.49,15
0.49,15
0.49,15
0.49,15
0.5,15
0.5,15
0.5,15
0.5,15
0.5,15
0.5,15
0.5,15
0.5,15
0.51,15
0.51,15
0.51,15
0.51,15
0.51,15
0.52,15
0.52,15
0.52,15
0.52,15
0.52,15
0.52,15
0.52,15
0.53,16
0.53,15
0.53,15
0.53,15
0.53,15
0.53,15
0.54,15
0.54,16
0.54,15
0.54,15
0.54,15
0.54,15
0.54,15
0.55,15
0.55,15
0.55,15
0.55,15
0.55,15
0.55,15
0.56,15
0.56,15
0.56,15
0.56,15
0.56,15
0.56,15
0.56,15
0.57,15
0.57,15
0.57,15
0.57,15
0.57,15
0.57,15
0.57,15
0.58,15
0.58,15
0.58,15
0.58,15
0.58,15
0.58,15
0.59,15
0.59,15
0.59,15
0.59,15
0.59,15
0.59,15
0.6,15
0.6,15
0.6,15
0.6,15
0.6,15
0.6,15
0.61,15
0.61,15
0.61,15
0.61,15
0.61,15
0.61,15
0.61,15
0.61,15
0.62,15
0.62,15
0.62,15
0.62,15
0.62,15
0.62,15
0.63,15
0.63,15
0.63,15
0.63,15
0.63,14
0.63,15
0.63,15
0.64,15
0.64,15
0.64,15
0.64,15
0.64,15
0.65,15
0.65,15
0.65,15
0.65,15
0.65,15
0.65,15
0.65,15
0.66,15
0.66,15
0.66,15
0.66,14
0.66,15
0.66,15
0.67,15
0.67,15
0.67,15
0.67,15
0.67,15
0.67,15
0.67,15
0.68,15
0.68,15
0.68,15
0.68,15
0.68,15
0.68,15
0.69,15
0.69,15
0.69,15
0.69,15
0.69,15
0.69,15
0.69,15
0.7,15
0.7,15
0.7,15
0.7,15
0.7,15
0.7,15
0.7,15
0.71,15
0.71,15
0.71,15
0.71,15
0.71,15
0.71,15
0.71,15
0.72,15
0.72,15
0.72,15
0.72,15
0.72,15
0.72,15
0.73,15
0.73,15
0.73,15
0.73,15
0.73,15
0.74,15
0.74,15
0.74,15
0.74,15
0.74,15
0.74,15
0.74,15
0.75,15
0.75,15
0.75,15
0.75,15
0.75,15
0.75,15
0.75,15
0.76,15
0.76,15
0.76,15
0.76,15
0.76,15
0.76,15
0.76,15
0.77,15
0.77,15
0.77,15
0.77,15
0.77,15
0.77,15
0.78,15
0.78,15
0.78,15
0.78,15
0.78,15
0.78,15
0.79,15
0.79,15
0.79,15
0.79,15
0.79,15
0.79,15
0.79,15
0.8,15
0.8,15
0.8,15
0.8,15
0.8,15
0.8,15
0.81,15
0.81,15
0.81,15
0.81,15
0.81,15
0.81,15
0.81,15
0.82,15
0.82,15
0.82,15
0.82,15
0.82,15
0.82,15
0.83,15
0.83,15
0.83,15
0.83,15
0.83,15
0.83,15
0.83,15
0.84,15
0.84,15
0.84,15
0.84,15
0.84,15
0.84,15
0.85,15
0.85,15
0.85,15
0.85,15
0.85,15
0.85,15
0.86,15
0.86,15
0.86,15
0.86,15
0.86,15
0.86,15
0.86,15
0.86,15
0.87,15
0.87,15
0.87,15
0.87,15
0.87,15
0.88,15
0.88,15
0.88,15
0.88,15
0.88,15
0.88,15
0.88,15
0.88,15
0.89,15
0.89,15
0.89,15
0.89,15
0.89,15
0.89,15
0.9,15
0.9,16
0.9,15
0.9,15
0.9,15
0.9,15
0.91,15
0.91,16
0.91,16
0.91,16
0.91,16
0.91,16
0.91,16
0.92,16
0.92,16
0.92,16
0.92,16
0.92,16
0.92,16
0.93,17
0.93,17
0.93,20
0.93,26
0.93,30
0.93,31
0.93,31
0.94,33
0.94,36
0.94,41
0.94,44
0.94,46
0.94,45
0.95,45
0.95,51
0.95,57
0.95,60
0.95,62
0.95,61
0.95,62
0.96,65
0.96,69
0.96,73
0.96,76
0.96,80
0.96,82
0.96,83
0.97,82
0.97,80
0.97,78
0.97,76
0.97,74
0.97,72
0.98,70
0.98,69
0.98,67
0.98,65
0.98,63
0.98,62
0.99,61
0.99,60
0.99,58
0.99,56
0.99,55
0.99,53
1.0,52
1.0,51
1.0,50
1.0,49
1.0,47
1.0,46
1.0,46
1.01,44
1.01,44
1.01,42
1.01,41
1.01,40
1.01,40
1.01,39
1.02,38
1.02,38
1.02,37
1.02,36
1.02,36
1.02,35
1.03,34
1.03,34
1.03,33
1.03,32
1.03,32
1.03,31
1.03,31
1.04,31
1.04,30
1.04,29
1.04,29
1.04,28
1.04,28
1.05,28
1.05,27
1.05,26
1.05,27
1.05,27
1.05,27
1.05,27
1.06,26
1.06,28
1.06,32
1.06,38
1.06,42
1.06,41
1.07,41
1.07,40
1.07,41
1.07,42
1.07,46
1.07,57
1.08,67
1.08,70
1.08,69
1.08,73
1.08,79
1.08,83
1.08,83
1.09,85
1.09,90
1.09,96
1.09,96
1.09,94
1.09,95
1.1,96
1.1,94
1.1,95
1.1,102
1.1,119
1.1,133
1.1,132
1.11,136
1.11,144
1.11,146
1.11,142
1.11,139
1.11,138
1.12,137
1.12,139
1.12,148
1.12,159
1.12,158
1.12,171
1.12,193
1.13,208
1.13,213
1.13,207
1.13,201
1.13,194
1.13,193
1.14,195
1.14,192
1.14,188
1.14,187
1.14,184
1.14,179
1.15,176
1.15,174
1.15,173
1.15,170
1.15,164
1.15,160
1.16,155
1.16,151
1.16,146
1.16,143
1.16,141
1.16,137
1.17,134
1.17,135
1.17,136
1.17,132
1.17,128
1.17,125
1.17,126
1.18,133
1.18,139
1.18,143
1.18,153
1.18,167
1.18,174
1.19,171
1.19,181
1.19,199
1.19,215
1.19,223
1.2,224
1.2,224
1.2,219
1.2,217
1.2,217
1.2,227
1.2,234
1.21,228
1.21,227
1.21,225
1.21,219
1.21,215
1.21,211
1.22,206
1.22,199
1.22,193
1.22,189
1.22,191
1.22,192
1.22,190
1.23,188
1.23,184
1.23,178
1.23,174
1.23,168
1.23,165
1.24,168
1.24,176
1.24,180
1.24,178
1.24,172
1.24,168
1.25,164
1.25,163
1.25,161
1.25,156
1.25,152
1.25,155
1.25,157
1.26,154
1.26,152
1.26,148
1.26,146
1.26,147
1.26,156
1.27,164
1.27,169
1.27,167
1.27,163
1.27,158
1.27,167
1.27,186
1.28,203
1.28,211
1.28,215
1.28,216
1.28,210
1.29,211
1.29,218
1.29,227
1.29,237
1.29,248
1.29,254
1.29,256
1.3,252
1.3,252
1.3,263
1.3,275
1.3,283
1.3,286
1.31,286
1.31,278
1.31,274
1.31,267
1.31,258
1.31,250
1.32,245
1.32,251
1.32,263
1.32,271
1.32,277
1.32,275
1.33,270
1.33,265
1.33,266
1.33,276
1.33,291
1.33,303
1.34,303
1.34,296
1.34,296
1.34,295
1.34,292
1.34,287
1.35,279
1.35,272
1.35,269
1.35,270
1.35,269
1.35,271
1.35,265
1.36,261
1.36,266
1.36,274
1.36,280
1.36,284
1.36,285
1.37,279
1.37,276
1.37,274
1.37,269
1.37,261
1.37,258
1.37,254
1.38,253
1.38,247
1.38,242
1.38,237
1.38,235
1.38,230
1.39,224
1.39,229
1.39,227
1.39,237
1.39,243
1.39,241
1.4,233
1.4,226
1.4,226
1.4,230
1.4,225
1.4,222
1.4,217
1.41,213
1.41,215
1.41,218
1.41,223
1.41,226
1.41,225
1.42,220
1.42,227
1.42,246
1.42,259
1.42,256
1.42,255
1.43,251
1.43,252
1.43,254
1.43,260
1.43,257
1.43,251
1.44,250
1.44,255
1.44,263
1.44,267
1.44,262
1.44,254
1.45,249
1.45,246
1.45,239
1.45,239
1.45,241
1.45,242
1.46,240
1.46,238
1.46,233
1.46,226
1.46,223
1.46,226
1.47,233
1.47,240
1.47,244
1.47,243
1.47,239
1.47,233
1.47,231
1.48,225
1.48,219
1.48,214
1.48,216
1.48,219
1.48,214
1.49,218
1.49,232
1.49,246
1.49,253
1.49,247
1.49,245
1.5,249
1.5,251
1.5,250
1.5,243
1.5,238
1.5,232
1.5,224
1.51,218
1.51,219
1.51,219
1.51,213
1.51,212
1.51,213
1.52,214
1.52,211
1.52,205
1.52,199
1.52,194
1.52,192
1.52,201
1.53,218
1.53,229
1.53,235
1.53,237
1.53,232
1.54,233
1.54,230
1.54,237
1.54,248
1.54,257
1.54,254
1.54,246
1.55,243
1.55,237
1.55,234
1.55,236
1.55,239
1.55,241
1.56,236
1.56,231
1.56,233
1.56,237
1.56,232
1.56,225
1.57,220
1.57,214
1.57,211
1.57,211
1.57,216
1.57,218
1.58,217
1.58,213
1.58,208
1.58,213
1.58,217
1.58,212
1.59,205
1.59,199
1.59,194
1.59,188
1.59,188
1.59,184
1.59,180
1.6,178
1.6,174
1.6,170
1.6,164
1.6,160
1.6,162
1.61,169
1.61,173
1.61,170
1.61,169
1.61,176
1.61,184
1.61,188
1.62,184
1.62,179
1.62,177
1.62,175
1.62,170
1.63,164
1.63,160
1.63,157
1.63,154
1.63,151
1.63,153
1.63,156
1.64,154
1.64,150
1.64,145
1.64,140
1.64,136
1.64,134
1.65,129
1.65,126
1.65,124
1.65,128
1.65,132
1.65,129
1.65,134
1.66,149
1.66,165
1.66,172
1.66,171
1.66,165
1.66,161
1.67,156
1.67,158
1.67,165
1.67,173
1.67,178
1.67,175
1.68,180
1.68,185
1.68,183
1.68,177
1.68,173
1.68,167
1.68,164
1.69,161
1.69,156
1.69,152
1.69,148
1.69,146
1.7,146
1.7,150
1.7,154
1.7,153
1.7,149
1.7,150
1.7,155
1.71,153
1.71,148
1.71,144
1.71,139
1.71,135
1.72,131
1.72,128
1.72,133
1.72,138
1.72,139
1.72,137
1.72,144
1.73,155
1.73,159
1.73,156
1.73,152
1.73,151
1.73,150
1.74,148
1.74,145
1.74,141
1.74,137
1.74,134
1.74,132
1.74,131
1.75,130
1.75,127
1.75,123
1.75,121
1.75,120
1.75,119
1.76,116
1.76,112
1.76,112
1.76,113
1.76,112
1.76,108
1.77,106
1.77,105
1.77,102
1.77,101
1.77,100
1.77,99
1.77,97
1.78,94
1.78,93
1.78,90
1.78,88
1.78,88
1.78,97
1.78,114
1.79,122
1.79,122
1.79,137
1.79,160
1.79,165
1.8,161
1.8,157
1.8,152
1.8,147
1.8,145
1.8,144
1.8,147
1.81,153
1.81,161
1.81,162
1.81,158
1.81,161
1.82,167
1.82,170
1.82,169
1.82,168
1.82,163
1.82,159
1.82,156
1.83,151
1.83,146
1.83,143
1.83,141
1.83,138
1.83,135
1.84,131
1.84,127
1.84,124
1.84,124
1.84,122
1.84,118
1.85,118
1.85,119
1.85,118
1.85,115
1.85,112
1.85,113
1.86,116
1.86,126
1.86,134
1.86,132
1.86,140
1.86,160
1.86,170
1.86,167
1.87,166
1.87,164
1.87,163
1.87,158
1.87,154
1.88,151
1.88,147
1.88,145
1.88,144
1.88,140
1.88,138
1.88,135
1.89,131
1.89,128
1.89,126
1.89,124
1.89,121
1.9,119
1.9,117
1.9,114
1.9,112
1.9,112
1.9,109
1.9,107
1.9,104
1.91,101
1.91,98
1.91,96
1.91,99
1.91,104
1.91,106
1.92,104
1.92,111
1.92,113
1.92,112
1.92,111
1.92,111
1.93,108
1.93,110
1.93,109
1.93,109
1.93,106
1.93,102
1.94,99
1.94,102
1.94,108
1.94,107
1.94,111
1.94,120
1.95,122
1.95,120
1.95,117
1.95,115
1.95,114
1.95,112
1.96,110
1.96,106
1.96,104
1.96,103
1.96,101
1.96,99
1.97,102
1.97,103
1.97,100
1.97,98
1.97,98
1.97,97
1.97,95
1.98,93
1.98,91
1.98,91
1.98,90
1.98,89
1.98,88
1.98,95
1.99,107
1.99,115
1.99,115
1.99,124
1.99,132
1.99,130
2.0,128
2.0,129
2.0,135
2.0,140
2.0,142
2.0,138
2.01,134
2.01,131
2.01,132
2.01,132
2.01,128
2.01,129
2.02,134
2.02,135
2.02,133
2.02,129
2.02,126
2.02,126
2.03,130
2.03,133
2.03,132
2.03,136
2.03,140
2.03,139
2.03,134
2.04,131
2.04,131
2.04,128
2.04,127
2.04,135
2.04,146
2.05,147
2.05,145
2.05,146
2.05,150
2.05,148
2.05,146
2.06,150
2.06,148
2.06,146
2.06,144
2.06,143
2.06,141
2.07,138
2.07,138
2.07,135
2.07,132
2.07,134
2.07,132
2.07,131
2.08,132
2.08,131
2.08,128
2.08,124
2.08,121
2.08,120
2.09,119
2.09,122
2.09,119
2.09,117
2.09,115
2.09,116
2.1,122
2.1,129
2.1,131
2.1,144
2.1,157
2.1,170
2.11,173
2.11,172
2.11,169
2.11,165
2.11,161
2.11,156
2.11,151
2.12,150
2.12,155
2.12,155
2.12,157
2.12,166
2.12,173
2.13,169
2.13,171
2.13,168
2.13,165
2.13,163
2.13,164
2.14,165
2.14,164
2.14,160
2.14,156
2.14,153
2.14,151
2.15,157
2.15,155
2.15,157
2.15,154
2.15,155
2.15,158
2.15,158
2.16,168
2.16,171
2.16,174
2.16,197
2.16,214
2.16,215
2.17,211
2.17,205
2.17,199
2.17,194
2.17,189
2.17,183
2.18,181
2.18,175
2.18,173
2.18,173
2.18,172
2.18,174
2.19,174
2.19,174
2.19,173
2.19,173
2.19,168
2.19,164
2.19,161
2.2,158
2.2,156
2.2,155
2.2,152
2.2,148
2.2,144
2.21,139
2.21,143
2.21,145
2.21,144
2.21,141
2.21,143
2.22,152
2.22,156
2.22,157
2.22,157
2.22,154
2.22,150
2.23,146
2.23,144
2.23,141
2.23,139
2.23,136
2.23,143
2.23,151
2.24,150
2.24,145
2.24,144
2.24,143
2.24,144
2.24,144
2.25,142
2.25,144
2.25,144
2.25,147
2.25,158
2.25,169
2.26,171
2.26,168
2.26,167
2.26,182
2.26,197
2.26,205
2.27,201
2.27,195
2.27,189
2.27,185
2.27,184
2.27,182
2.28,176
2.28,172
2.28,167
2.28,170
2.28,176
2.28,178
2.28,181
2.29,179
2.29,176
2.29,175
2.29,178
2.29,177
2.29,176
2.3,176
2.3,177
2.3,181
2.3,183
2.3,179
2.3,174
2.31,170
2.31,165
2.31,162
2.31,161
2.31,160
2.31,165
2.32,167
2.32,165
2.32,167
2.32,171
2.32,166
2.32,173
2.32,184
2.33,186
2.33,183
2.33,179
2.33,176
2.33,171
2.33,168
2.34,167
2.34,172
2.34,178
2.34,180
2.34,175
2.34,170
2.34,169
2.35,173
2.35,179
2.35,188
2.35,192
2.35,192
2.36,189
2.36,185
2.36,179
2.36,176
2.36,175
2.36,178
2.36,179
2.37,177
2.37,180
2.37,185
2.37,187
2.37,187
2.37,188
2.38,186
2.38,182
2.38,176
2.38,170
2.38,166
2.38,163
2.38,165
2.39,168
2.39,172
2.39,179
2.39,179
2.39,174
2.4,170
2.4,169
2.4,169
2.4,174
2.4,182
2.4,184
2.4,183
2.41,184
2.41,186
2.41,187
2.41,185
2.41,180
2.41,175
2.42,174
2.42,174
2.42,174
2.42,169
2.42,167
2.42,171
2.42,172
2.43,171
2.43,169
2.43,170
2.43,175
2.43,179
2.44,178
2.44,178
2.44,174
2.44,169
2.44,166
2.44,163
2.44,163
2.45,165
2.45,163
2.45,164
2.45,168
2.45,169
2.45,169
2.46,167
2.46,164
2.46,165
2.46,169
2.46,174
2.46,175
2.46,170
2.47,165
2.47,161
2.47,158
2.47,153
2.47,157
2.48,164
2.48,169
2.48,166
2.48,161
2.48,156
2.48,153
2.48,151
2.49,148
2.49,143
2.49,140
2.49,140
2.49,138
2.49,134
2.5,132
2.5,135
2.5,141
2.5,143
2.5,143
2.5,142
2.5,142
2.51,141
2.51,139
2.51,138
2.51,138
2.51,137
2.51,137
2.52,136
2.52,136
2.52,133
2.52,129
2.52,129
2.52,131
2.53,132
2.53,131
2.53,128
2.53,126
2.53,125
2.53,125
2.54,122
2.54,124
2.54,131
2.54,134
2.54,131
2.54,129
2.55,126
2.55,123
2.55,118
2.55,119
2.55,118
2.55,127
2.55,138
2.56,141
2.56,141
2.56,139
2.56,136
2.56,134
2.56,132
2.57,130
2.57,127
2.57,123
2.57,120
2.57,118
2.57,118
2.58,123
2.58,127
2.58,127
2.58,126
2.58,125
2.58,127
2.59,128
2.59,128
2.59,124
2.59,121
2.59,120
2.59,118
2.59,124
2.6,126
2.6,126
2.6,127
2.6,126
2.6,124
2.6,125
2.61,128
2.61,128
2.61,128
2.61,126
2.61,122
2.61,120
2.62,120
2.62,121
2.62,120
2.62,119
2.62,118
2.62,119
2.63,122
2.63,122
2.63,120
2.63,116
2.63,113
2.63,110
2.63,110
2.64,110
2.64,109
2.64,108
2.64,107
2.64,108
2.64,111
2.65,117
2.65,118
2.65,116
2.65,115
2.65,112
2.65,109
2.66,106
2.66,105
2.66,104
2.66,106
2.66,110
2.66,109
2.67,106
2.67,102
2.67,100
2.67,101
2.67,110
2.67,115
2.67,116
2.68,115
2.68,114
2.68,112
2.68,111
2.68,110
2.68,109
2.69,106
2.69,103
2.69,103
2.69,104
2.69,106
2.69,107
2.7,106
2.7,105
2.7,104
2.7,103
2.7,102
2.7,100
2.71,98
2.71,95
2.71,93
2.71,90
2.71,93
2.71,101
2.71,105
2.72,104
2.72,103
2.72,101
2.72,99
2.72,98
2.72,98
2.73,99
2.73,100
2.73,101
2.73,101
2.73,100
2.73,99
2.74,97
2.74,95
2.74,94
2.74,94
2.74,94
2.74,93
2.74,91
2.75,90
2.75,90
2.75,89
2.75,88
2.75,87
2.75,87
2.76,88
2.76,88
2.76,87
2.76,85
2.76,83
2.76,82
2.76,83
2.77,85
2.77,86
2.77,86
2.77,87
2.77,86
2.77,87
2.78,86
2.78,86
2.78,85
2.78,84
2.78,83
2.78,82
2.78,81
2.79,81
2.79,82
2.79,83
2.79,84
2.79,85
2.79,84
2.8,84
2.8,84
2.8,83
2.8,83
2.8,82
2.8,82
2.8,83
2.81,84
2.81,84
2.81,83
2.81,82
2.81,81
2.81,81
2.82,81
2.82,81
2.82,80
2.82,80
2.82,81
2.82,83
2.83,83
2.83,82
2.83,82
2.83,81
2.83,82
2.83,83
2.83,84
2.84,83
2.84,81
2.84,80
2.84,81
2.84,81
2.84,82
2.84,83
2.85,84
2.85,83
2.85,82
2.85,81
2.85,80
2.85,78
2.86,76
2.86,77
2.86,78
2.86,78
2.86,77
2.86,76
2.87,75
2.87,75
2.87,74
2.87,73
2.87,71
2.87,71
2.87,71
2.88,71
2.88,70
2.88,69
2.88,67
2.88,65
2.88,64
2.89,63
2.89,63
2.89,63
2.89,62
2.89,61
2.89,62
2.89,63
2.9,63
2.9,63
2.9,61
2.9,60
2.9,58
2.9,57
2.91,56
2.91,58
2.91,59
2.91,59
2.91,57
2.91,56
2.91,54
2.92,53
2.92,53
2.92,52
2.92,51
2.92,50
2.92,49
2.93,48
2.93,48
2.93,47
2.93,47
2.93,45
2.93,44
2.93,44
2.94,44
2.94,43
2.94,42
2.94,41
2.94,41
2.94,40
2.95,40
2.95,40
2.95,39
2.95,38
2.95,37
2.95,38
2.96,37
2.96,38
2.96,38
2.96,38
2.96,38
2.96,37
2.96,37
2.97,37
2.97,37
2.97,38
2.97,38
2.97,38
2.97,37
2.97,37
2.98,36
2.98,36
2.98,36
2.98,35
2.98,34
2.98,34
2.98,33
2.99,33
2.99,33
2.99,32
2.99,32
2.99,32
3.0,31
3.0,32
3.0,33
3.0,34
3.0,34
3.0,36
3.0,38
3.01,39
3.01,38
3.01,37
3.01,37
3.01,36
3.01,39
3.01,42
3.02,43
3.02,42
3.02,42
3.02,46
3.02,49
3.02,53
3.03,55
3.03,55
3.03,53
3.03,52
3.03,52
3.03,53
3.04,55
3.04,58
3.04,59
3.04,61
3.04,60
3.04,60
3.04,63
3.05,66
3.05,65
3.05,63
3.05,62
3.05,61
3.05,59
3.05,58
3.06,59
3.06,60
3.06,60
3.06,59
3.06,60
3.06,59
3.07,57
3.07,56
3.07,54
3.07,53
3.07,52
3.07,51
3.08,50
3.08,49
3.08,48
3.08,47
3.08,46
3.08,45
3.08,46
3.09,51
3.09,58
3.09,61
3.09,60
3.09,63
3.09,65
3.1,65
3.1,65
3.1,73
3.1,82
3.1,87
3.1,87
3.1,85
3.11,89
3.11,95
3.11,106
3.11,111
3.11,112
3.11,114
3.12,113
3.12,110
3.12,107
3.12,104
3.12,101
3.12,98
3.13,96
3.13,93
3.13,91
3.13,91
3.13,96
3.13,103
3.13,103
3.14,101
3.14,101
3.14,100
3.14,98
3.14,98
3.14,98
3.15,97
3.15,94
3.15,92
3.15,90
3.15,88
3.15,86
3.15,85
3.16,83
3.16,81
3.16,79
3.16,81
3.16,84
3.16,85
3.17,85
3.17,84
3.17,83
3.17,85
3.17,86
3.17,87
3.17,85
3.18,83
3.18,81
3.18,80
3.18,79
3.18,77
3.18,75
3.19,74
3.19,76
3.19,79
3.19,83
3.19,89
3.19,91
3.19,89
3.2,90
3.2,93
3.2,95
3.2,96
3.2,94
3.2,92
3.21,89
3.21,87
3.21,85
3.21,85
3.21,84
3.21,83
3.22,81
3.22,80
3.22,87
3.22,93
3.22,96
3.22,95
3.22,92
3.23,92
3.23,91
3.23,90
3.23,90
3.23,90
3.23,93
3.23,95
3.24,95
3.24,92
3.24,90
3.24,89
3.24,87
3.24,85
3.25,83
3.25,81
3.25,81
3.25,80
3.25,78
3.25,76
3.26,75
3.26,73
3.26,71
3.26,69
3.26,68
3.26,67
3.26,67
3.27,66
3.27,64
3.27,63
3.27,62
3.27,61
3.27,62
3.28,60
3.28,60
3.28,58
3.28,56
3.28,56
3.28,58
3.28,59
3.29,58
3.29,57
3.29,56
3.29,54
3.29,53
3.29,52
3.3,51
3.3,50
3.3,49
3.3,48
3.3,47
3.3,46
3.3,45
3.31,44
3.31,43
3.31,42
3.31,41
3.31,40
3.31,42
3.32,46
3.32,47
3.32,46
3.32,45
3.32,44
3.32,43
3.32,43
3.33,43
3.33,43
3.33,42
3.33,42
3.33,40
3.33,40
3.34,39
3.34,39
3.34,39
3.34,39
3.34,38
3.34,37
3.35,36
3.35,36
3.35,35
3.35,35
3.35,35
3.35,35
3.35,36
3.36,37
3.36,36
3.36,35
3.36,35
3.36,35
3.36,35
3.36,36
3.37,35
3.37,35
3.37,34
3.37,35
3.37,35
3.37,35
3.38,34
3.38,33
3.38,33
3.38,33
3.38,33
3.38,33
3.39,33
3.39,32
3.39,32
3.39,31
3.39,31
3.39,30
3.39,31
3.4,31
3.4,30
3.4,32
3.4,32
3.4,31
3.4,31
3.41,30
3.41,30
3.41,30
3.41,29
3.41,29
3.41,29
3.42,28
3.42,28
3.42,28
3.42,28
3.42,29
3.42,29
3.42,28
3.43,28
3.43,27
3.43,27
3.43,27
3.43,27
3.43,27
3.44,26
3.44,26
3.44,27
3.44,27
3.44,27
3.44,26
3.44,26
3.45,26
3.45,27
3.45,28
3.45,27
3.45,27
3.45,27
3.45,28
3.46,29
3.46,29
3.46,28
3.46,28
3.46,27
3.46,27
3.47,27
3.47,26
3.47,26
3.47,26
3.47,26
3.47,26
3.48,25
3.48,25
3.48,25
3.48,25
3.48,25
3.48,25
3.48,25
3.49,26
3.49,26
3.49,27
3.49,27
3.49,26
3.49,26
3.49,26
3.5,25
3.5,25
3.5,25
3.5,25
3.5,26
3.5,27
3.51,27
3.51,27
3.51,26
3.51,26
3.51,26
3.51,26
3.52,27
3.52,27
3.52,27
3.52,26
3.52,26
3.52,26
3.52,26
3.53,26
3.53,25
3.53,25
3.53,25
3.53,24
3.53,24
3.54,24
3.54,25
3.54,27
3.54,27
3.54,27
3.54,28
3.55,27
3.55,27
3.55,27
3.55,26
3.55,26
3.55,27
3.55,27
3.56,27
3.56,27
3.56,27
3.56,26
3.56,26
3.56,26
3.56,26
3.57,27
3.57,26
3.57,27
3.57,28
3.57,28
3.57,28
3.58,28
3.58,27
3.58,27
3.58,27
3.58,27
3.58,27
3.59,28
3.59,27
3.59,29
3.59,29
3.59,29
3.59,28
3.59,28
3.6,27
3.6,27
3.6,26
3.6,26
3.6,26
3.6,27
3.61,28
3.61,28
3.61,27
3.61,27
3.61,26
3.61,26
3.61,26
3.62,27
3.62,27
3.62,27
3.62,27
3.62,27
3.62,27
3.62,27
3.63,27
3.63,27
3.63,26
3.63,26
3.63,26
3.63,25
3.64,25
3.64,25
3.64,25
3.64,25
3.64,24
3.64,24
3.65,24
3.65,24
3.65,24
3.65,24
3.65,25
3.65,25
3.65,25
3.66,26
3.66,25
3.66,25
3.66,25
3.66,25
3.66,24
3.67,24
3.67,24
3.67,24
3.67,25
3.67,26
3.67,25
3.68,25
3.68,25
3.68,24
3.68,24
3.68,25
3.68,25
3.68,25
3.69,25
3.69,25
3.69,25
3.69,25
3.69,25
3.69,24
3.69,25
3.7,25
3.7,25
3.7,26
3.7,26
3.7,26
3.7,25
3.71,25
3.71,25
3.71,24
3.71,24
3.71,24
3.71,23
3.72,23
3.72,24
3.72,25
3.72,26
3.72,27
3.72,27
3.72,27
3.73,27
3.73,27
3.73,26
3.73,26
3.73,26
3.73,26
3.74,26
3.74,26
3.74,26
3.74,26
3.74,25
3.74,25
3.74,25
3.75,25
3.75,25
3.75,25
3.75,25
3.75,24
3.75,24
3.76,25
3.76,25
3.76,24
3.76,24
3.76,24
3.76,24
3.76,23
3.77,23
3.77,24
3.77,24
3.77,26
3.77,27
3.77,26
3.78,26
3.78,26
3.78,26
3.78,25
3.78,25
3.78,25
3.78,25
3.79,25
3.79,26
3.79,27
3.79,27
3.79,26
3.79,26
3.8,25
3.8,26
3.8,25
3.8,25
3.8,25
3.8,24
3.81,24
3.81,25
3.81,25
3.81,25
3.81,25
3.81,25
3.81,25
3.82,26
3.82,26
3.82,27
3.82,28
3.82,27
3.82,27
3.82,27
3.83,27
3.83,26
3.83,26
3.83,26
3.83,26
3.83,25
3.84,26
3.84,27
3.84,28
3.84,29
3.84,28
3.84,28
3.85,28
3.85,28
3.85,28
3.85,28
3.85,28
3.85,28
3.85,28
3.86,29
3.86,28
3.86,28
3.86,28
3.86,27
3.86,27
3.87,27
3.87,26
3.87,26
3.87,26
3.87,27
3.87,28
3.87,27
3.88,27
3.88,26
3.88,26
3.88,26
3.88,26
3.88,26
3.89,25
3.89,26
3.89,27
3.89,27
3.89,27
3.89,27
3.89,27
3.9,26
3.9,26
3.9,26
3.9,26
3.9,26
3.9,27
3.91,27
3.91,27
3.91,27
3.91,26
3.91,26
3.91,25
3.91,25
3.92,25
3.92,26
3.92,26
3.92,26
3.92,26
3.92,27
3.93,26
3.93,26
3.93,25
3.93,25
3.93,25
3.93,26
3.94,25
3.94,25
3.94,25
3.94,25
3.94,25
3.94,25
3.94,25
3.95,24
3.95,24
3.95,24
3.95,24
3.95,24
3.95,25
3.95,26
3.96,26
3.96,26
3.96,26
3.96,25
3.96,25
3.96,25
3.97,25
3.97,25
3.97,25
3.97,24
3.97,24
3.97,23
3.98,23
3.98,23
3.98,23
3.98,24
3.98,24
3.98,24
3.98,24
3.99,24
3.99,24
3.99,25
3.99,25
3.99,24
3.99,25
4.0,25
4.0,26
4.0,26
4.0,27
4.0,28
4.0,28
4.0,27
4.01,27
4.01,27
4.01,27
4.01,26
4.01,26
4.01,25
4.01,25
4.02,25
4.02,25
4.02,25
4.02,25
4.02,25
4.02,25
4.03,24
4.03,25
4.03,25
4.03,27
4.03,29
4.03,31
4.03,31
4.04,30
4.04,30
4.04,30
4.04,30
4.04,29
4.04,28
4.05,28
4.05,28
4.05,27
4.05,27
4.05,27
4.05,27
4.05,28
4.06,29
4.06,29
4.06,29
4.06,28
4.06,28
4.06,28
4.07,28
4.07,27
4.07,28
4.07,29
4.07,30
4.07,30
4.07,29
4.08,29
4.08,28
4.08,28
4.08,27
4.08,27
4.08,26
4.09,26
4.09,26
4.09,26
4.09,26
4.09,27
4.09,27
4.09,27
4.1,27
4.1,28
4.1,27
4.1,27
4.1,27
4.1,26
4.11,26
4.11,26
4.11,26
4.11,25
4.11,26
4.11,26
4.11,27
4.12,27
4.12,27
4.12,26
4.12,27
4.12,27
4.12,28
4.13,27
4.13,27
4.13,26
4.13,26
4.13,25
4.13,25
4.14,25
4.14,25
4.14,26
4.14,26
4.14,26
4.14,26
4.15,25
4.15,25
4.15,26
4.15,26
4.15,27
4.15,26
4.15,26
4.16,26
4.16,26
4.16,25
4.16,25
4.16,25
4.16,25
4.16,25
4.17,25
4.17,25
4.17,26
4.17,27
4.17,27
4.17,26
4.18,26
4.18,26
4.18,25
4.18,25
4.18,26
4.18,26
4.19,26
4.19,25
4.19,25
4.19,26
4.19,26
4.19,26
4.19,26
4.2,26
4.2,26
4.2,26
4.2,26
4.2,25
4.2,25
4.21,25
4.21,26
4.21,26
4.21,26
4.21,25
4.21,25
4.21,25
4.22,24
4.22,24
4.22,24
4.22,24
4.22,25
4.22,25
4.23,25
4.23,24
4.23,24
4.23,24
4.23,24
4.23,25
4.23,25
4.24,26
4.24,27
4.24,28
4.24,28
4.24,28
4.24,29
4.25,30
4.25,30
4.25,30
4.25,30
4.25,29
4.25,28
4.25,29
4.26,30
4.26,29
4.26,29
4.26,29
4.26,28
4.26,28
4.26,28
4.27,27
4.27,27
4.27,28
4.27,29
4.27,29
4.28,30
4.28,31
4.28,32
4.28,32
4.28,33
4.28,33
4.28,32
4.28,31
4.29,31
4.29,30
4.29,29
4.29,30
4.29,29
4.29,28
4.3,28
4.3,28
4.3,28
4.3,27
4.3,27
4.3,28
4.3,28
4.31,27
4.31,27
4.31,28
4.31,28
4.31,28
4.32,28
4.32,28
4.32,28
4.32,27
4.32,27
4.32,27
4.32,28
4.33,27
4.33,27
4.33,27
4.33,27
4.33,27
4.33,26
4.34,26
4.34,26
4.34,25
4.34,26
4.34,25
4.34,25
4.34,25
4.34,25
4.35,24
4.35,25
4.35,25
4.35,26
4.35,27
4.36,27
4.36,28
4.36,28
4.36,27
4.36,27
4.36,26
4.36,26
4.37,27
4.37,27
4.37,27
4.37,26
4.37,26
4.37,25
4.38,25
4.38,25
4.38,25
4.38,25
4.38,26
4.38,27
4.38,28
4.39,29
4.39,30
4.39,33
4.39,34
4.39,34
4.39,33
4.4,33
4.4,33
4.4,32
4.4,32
4.4,31
4.4,31
4.41,30
4.41,30
4.41,29
4.41,29
4.41,30
4.41,30
4.41,30
4.42,29
4.42,29
4.42,28
4.42,28
4.42,29
4.42,30
4.42,32
4.43,34
4.43,34
4.43,34
4.43,33
4.43,33
4.43,32
4.44,32
4.44,32
4.44,31
4.44,30
4.44,30
4.44,29
4.45,29
4.45,28
4.45,28
4.45,28
4.45,28
4.45,28
4.45,29
4.46,28
4.46,28
4.46,28
4.46,29
4.46,30
4.46,30
4.47,30
4.47,30
4.47,30
4.47,30
4.47,29
4.47,29
4.47,29
4.48,29
4.48,28
4.48,28
4.48,27
4.48,27
4.48,27
4.49,27
4.49,27
4.49,28
4.49,28
4.49,28
4.49,28
4.49,28
4.5,27
4.5,26
4.5,26
4.5,26
4.5,25
4.5,25
4.51,26
4.51,26
4.51,25
4.51,25
4.51,27
4.51,28
4.51,31
4.51,35
4.52,36
4.52,36
4.52,35
4.52,35
4.52,35
4.53,36
4.53,38
4.53,39
4.53,38
4.53,38
4.53,39
4.53,41
4.54,42
4.54,41
4.54,41
4.54,41
4.54,40
4.54,39
4.55,39
4.55,39
4.55,40
4.55,43
4.55,46
4.55,48
4.55,51
4.56,53
4.56,53
4.56,52
4.56,51
4.56,50
4.56,50
4.57,52
4.57,54
4.57,55
4.57,54
4.57,53
4.57,52
4.57,51
4.58,50
4.58,50
4.58,50
4.58,51
4.58,52
4.58,51
4.59,50
4.59,49
4.59,48
4.59,47
4.59,45
4.59,45
4.59,44
4.6,43
4.6,44
4.6,46
4.6,46
4.6,45
4.6,45
4.61,48
4.61,50
4.61,50
4.61,49
4.61,48
4.61,47
4.61,46
4.62,45
4.62,44
4.62,46
4.62,49
4.62,49
4.62,49
4.63,48
4.63,48
4.63,48
4.63,48
4.63,47
4.63,46
4.64,45
4.64,45
4.64,46
4.64,45
4.64,44
4.64,44
4.64,42
4.65,42
4.65,41
4.65,40
4.65,41
4.65,41
4.65,43
4.66,42
4.66,42
4.66,42
4.66,43
4.66,44
4.66,44
4.67,43
4.67,41
4.67,41
4.67,40
4.67,40
4.67,39
4.67,38
4.68,38
4.68,37
4.68,36
4.68,37
4.68,37
4.68,37
4.68,39
4.69,40
4.69,42
4.69,44
4.69,45
4.69,45
4.69,45
4.7,44
4.7,43
4.7,42
4.7,42
4.7,41
4.7,40
4.71,40
4.71,39
4.71,38
4.71,37
4.71,37
4.71,36
4.71,35
4.72,35
4.72,36
4.72,38
4.72,41
4.72,46
4.72,50
4.73,53
4.73,53
4.73,53
4.73,54
4.73,56
4.73,56
4.73,56
4.74,56
4.74,54
4.74,53
4.74,52
4.74,52
4.74,52
4.75,51
4.75,50
4.75,49
4.75,48
4.75,47
4.75,46
4.75,45
4.76,45
4.76,44
4.76,44
4.76,43
4.76,42
4.76,41
4.76,42
4.77,43
4.77,44
4.77,45
4.77,46
4.77,45
4.77,45
4.78,46
4.78,47
4.78,46
4.78,46
4.78,47
4.78,47
4.79,46
4.79,45
4.79,45
4.79,44
4.79,43
4.79,42
4.8,41
4.8,40
4.8,40
4.8,40
4.8,39
4.8,40
4.8,40
4.8,41
4.81,42
4.81,41
4.81,43
4.81,45
4.81,46
4.81,45
4.82,45
4.82,45
4.82,45
4.82,44
4.82,44
4.82,43
4.83,44
4.83,45
4.83,47
4.83,47
4.83,46
4.83,45
4.84,44
4.84,44
4.84,43
4.84,44
4.84,45
4.84,46
4.84,48
4.85,49
4.85,50
4.85,50
4.85,49
4.85,49
4.85,48
4.86,47
4.86,46
4.86,45
4.86,45
4.86,44
4.86,43
4.86,42
4.87,41
4.87,41
4.87,40
4.87,42
4.87,46
4.87,47
4.88,46
4.88,45
4.88,45
4.88,45
4.88,45
4.88,44
4.88,43
4.89,42
4.89,41
4.89,40
4.89,39
4.89,38
4.89,37
4.9,37
4.9,36
4.9,36
4.9,35
4.9,34
4.9,35
4.9,34
4.91,34
4.91,34
4.91,35
4.91,35
4.91,38
4.91,39
4.92,41
4.92,42
4.92,41
4.92,40
4.92,39
4.92,41
4.93,42
4.93,44
4.93,43
4.93,44
4.93,46
4.93,47
4.93,46
4.94,45
4.94,44
4.94,44
4.94,45
4.94,45
4.94,45
4.94,44
4.95,43
4.95,42
4.95,41
4.95,41
4.95,40
4.95,41
4.96,44
4.96,49
4.96,51
4.96,51
4.96,51
4.96,50
4.97,50
4.97,50
4.97,51
4.97,50
4.97,49
4.97,48
4.97,47
4.98,46
4.98,47
4.98,47
4.98,47
4.98,46
4.98,45
4.99,44
4.99,44
4.99,43
4.99,42
4.99,41
4.99,40
5.0,40
5.0,39
5.0,40
5.0,42
5.0,44
5.0,44
5.0,45
5.01,45
5.01,46
5.01,45
5.01,45
5.01,44
5.01,42
5.01,42
5.02,41
5.02,41
5.02,41
5.02,40
5.02,39
5.02,38
5.03,38
5.03,38
5.03,37
5.03,36
5.03,36
5.03,36
5.03,36
5.04,35
5.04,38
5.04,44
5.04,48
5.04,50
5.04,50
5.05,48
5.05,48
5.05,48
5.05,48
5.05,50
5.05,52
5.05,51
5.06,50
5.06,49
5.06,48
5.06,47
5.06,47
5.06,47
5.07,46
5.07,45
5.07,44
5.07,43
5.07,43
5.07,46
5.07,48
5.07,49
5.08,51
5.08,52
5.08,51
5.08,50
5.08,48
5.09,48
5.09,47
5.09,46
5.09,45
5.09,44
5.09,44
5.09,44
5.1,43
5.1,42
5.1,42
5.1,42
5.1,43
5.1,46
5.11,48
5.11,49
5.11,49
5.11,48
5.11,46
5.11,45
5.11,45
5.12,44
5.12,43
5.12,42
5.12,41
5.12,40
5.12,39
5.13,39
5.13,38
5.13,38
5.13,39
5.13,38
5.13,39
5.14,40
5.14,41
5.14,44
5.14,45
5.14,45
5.14,45
5.14,45
5.15,44
5.15,43
5.15,42
5.15,41
5.15,41
5.15,40
5.15,39
5.16,39
5.16,38
5.16,38
5.16,37
5.16,36
5.16,37
5.17,38
5.17,39
5.17,40
5.17,40
5.17,40
5.17,40
5.18,40
5.18,39
5.18,38
5.18,39
5.18,38
5.18,37
5.18,37
5.19,37
5.19,36
5.19,35
5.19,35
5.19,35
5.19,34
5.2,33
5.2,33
5.2,32
5.2,32
5.2,31
5.2,31
5.2,33
5.21,37
5.21,38
5.21,37
5.21,36
5.21,37
5.21,37
5.22,36
5.22,36
5.22,36
5.22,38
5.22,40
5.22,42
5.22,41
5.23,40
5.23,42
5.23,45
5.23,47
5.23,46
5.23,48
5.24,51
5.24,53
5.24,55
5.24,55
5.24,54
5.24,53
5.24,52
5.25,51
5.25,52
5.25,54
5.25,57
5.25,60
5.25,61
5.26,61
5.26,60
5.26,59
5.26,60
5.26,61
5.26,61
5.26,60
5.27,60
5.27,58
5.27,57
5.27,57
5.27,59
5.27,60
5.28,59
5.28,58
5.28,57
5.28,56
5.28,54
5.28,53
5.28,53
5.29,53
5.29,54
5.29,53
5.29,53
5.29,51
5.29,50
5.3,51
5.3,53
5.3,52
5.3,51
5.3,50
5.3,49
5.3,49
5.31,49
5.31,49
5.31,49
5.31,48
5.31,47
5.31,46
5.32,46
5.32,47
5.32,48
5.32,47
5.32,46
5.32,45
5.32,44
5.33,44
5.33,43
5.33,45
5.33,47
5.33,48
5.34,47
5.34,49
5.34,51
5.34,51
5.34,51
5.34,54
5.34,55
5.34,57
5.35,59
5.35,59
5.35,58
5.35,56
5.35,56
5.35,58
5.36,61
5.36,63
5.36,63
5.36,63
5.36,62
5.36,61
5.36,60
5.37,59
5.37,57
5.37,56
5.37,55
5.37,54
5.37,53
5.38,52
5.38,51
5.38,49
5.38,48
5.38,48
5.38,48
5.39,47
5.39,48
5.39,50
5.39,51
5.39,53
5.39,55
5.4,54
5.4,53
5.4,52
5.4,51
5.4,52
5.4,52
5.4,52
5.41,51
5.41,50
5.41,49
5.41,48
5.41,48
5.41,47
5.41,46
5.42,45
5.42,45
5.42,44
5.42,44
5.42,44
5.42,43
5.43,43
5.43,42
5.43,41
5.43,41
5.43,41
5.43,40
5.44,40
5.44,40
5.44,43
5.44,47
5.44,49
5.44,48
5.44,47
5.45,46
5.45,45
